20100104;49.68;50.22;49.62;50.19;2054966
20100105;49.51;50;48.9;49.58;2224934
20100106;49.42;49.85;48.84;49.74;1825107
20100107;49.45;49.53;48.72;49.28;2248322
20100108;48.87;49.65;48.15;49.53;2955630
20100111;49.79;49.91;48.51;49.07;1515328
20100112;47.88;48.55;47.58;47.71;2238501
20100113;47.59;49.08;47.03;48.88;2151799
20100114;48.84;49.36;48.73;49;1587814
20100115;49;49.45;48.35;48.44;2965517
20100119;48.16;48.8;48.04;48.68;2206088
20100120;47.91;48.27;47.63;48.17;2024783
20100121;48.29;48.79;47.65;48.3;3193175
20100122;48.14;48.6;46.89;47.03;2919035
20100125;47.43;48.07;47.31;47.49;1398180
20100126;46.98;47.54;46.22;46.57;1968332
20100127;46.12;46.91;45.05;46.2;3277112
20100128;46.51;46.67;44.79;45.76;2721572
20100129;45.89;47.02;44.69;45.21;3175727
20100201;45.63;47.83;45.63;47.78;2228744
20100202;47.92;48.61;47.13;48.52;1888019
20100203;48.08;49.11;48.03;48.6;2140521
20100204;47.89;48.02;46.39;46.45;2426550
20100205;46.45;46.69;45.01;46.43;2989254
20100208;46.27;46.88;45.45;45.79;2130277
20100209;46.52;47.65;46.19;47.27;2663867
20100210;45.32;45.5;43.39;44.12;7989754
20100211;43.96;45.58;43.89;45.53;3578177
20100212;44.74;45.62;44.3;45.49;2918484
20100216;46.33;46.94;46.14;46.41;2698164
20100217;46.55;46.64;46.1;46.43;2155245
20100218;46.21;47.41;46.05;47.17;2491768
20100219;46.94;47.52;46.5;47.32;1920543
20100222;47.61;47.61;45.9;46.06;1896653
20100223;45.7;45.98;44.8;44.96;2149919
20100224;45.71;46.49;45.41;46.34;2702655
20100225;45.33;46.67;44.98;46.61;1999365
20100226;46.77;47.19;46.2;47.03;1755024
20100301;47.24;47.78;47.12;47.33;2039151
20100302;47.58;48.05;47.26;47.42;1907721
20100303;47.73;48.16;47.39;47.91;2369237
20100304;48.02;48.47;47.42;47.6;2444360
20100305;47.98;48.74;47.63;48.69;2760094
20100308;48.57;49.11;48.5;48.69;2239840
20100309;48.26;49.64;48.26;49.03;2558371
20100310;48.95;49.69;48.71;49.42;2016751
20100311;49.31;49.6;48.69;48.89;2290945
20100312;49.42;49.47;48.54;48.79;1057191
20100315;48.66;48.75;47.68;48.45;1780731
20100316;48.75;48.75;47.99;48.24;1810802
20100317;48.39;48.77;47.63;47.91;2871113
20100318;48.03;48.2;46.18;46.64;3170078
20100319;46.91;47.18;45.17;45.85;4208134
20100322;45.38;46.32;44.8;45.75;3065242
20100323;45.87;47.13;45.76;47.07;2797354
20100324;46.58;47.23;46.05;46.29;2058887
20100325;46.65;46.96;44.56;44.71;3401598
20100326;44.84;44.84;43.77;44.8;3590774
20100329;45.81;46.55;45.78;46.48;3093848
20100330;46.46;46.85;46.11;46.67;2209285
20100331;46.75;47.01;46.34;46.47;3170759
20100401;47.02;47.81;47.01;47.79;2424805
20100405;48.08;49.07;47.8;48.89;3214577
20100406;48.81;49.31;48.55;48.69;2683174
20100407;50.21;52.62;49.94;51.87;8240584
20100408;51.97;53.89;51.87;53.48;7012838
20100409;53.67;54.1;52.34;52.39;3152042
20100412;52.29;53.65;51.96;53.59;3411790
20100413;53.48;54.2;52.59;53.69;3592825
20100414;54.42;54.72;53.66;54.65;2770478
20100415;54.69;55.48;54.35;55.25;2115400
20100416;54.78;55.18;53.65;53.74;3289953
20100419;53.23;54.2;53.15;54;2600718
20100420;54.44;55.84;54.44;55.76;2711309
20100421;55.66;56.11;55.23;55.94;1988478
20100422;55.49;56.61;54.93;56.51;2244603
20100423;56.08;56.93;55.53;56.86;2656383
20100426;56.98;57.29;56.08;56.24;2084505
20100427;56.03;56.52;54.18;54.32;2334761
20100428;54.7;55.2;54.04;54.71;2175545
20100429;55.1;55.81;54.6;55.63;2341525
20100430;55.77;57.48;55.28;56.06;3536087
20100503;56.41;57.45;55.52;56.78;2958475
20100504;54.68;55.27;52.72;55.12;4199495
20100505;54;54.47;52.14;52.59;3376358
20100506;52.2;52.74;48.29;51.19;4758413
20100507;50.91;52.28;49.47;50.42;3721705
20100510;51.34;53.89;50.79;53.25;3191327
20100511;52.49;52.71;51.93;52.37;3855763
20100512;52.5;54.37;52.5;54.19;3452939
20100513;54.06;55.06;53.8;54.04;2607761
20100514;53.47;53.81;51.71;53.05;1997957
20100517;53.08;53.65;50.48;51.62;3129536
20100518;52.5;52.96;51.24;51.42;2956317
20100519;51.26;52.12;49.8;51.12;2694446
20100520;49.82;49.89;48.02;48.15;2838392
20100521;47.19;50.33;46.64;50.3;4135169
20100524;49.82;50.54;48.63;48.68;2862287
20100525;46.75;49.47;46.72;49.36;3253479
20100526;50.01;50.95;49.7;49.87;3294295
20100527;50.99;53.36;50.73;53.26;4022068
20100528;53.02;53.79;51.93;52.42;3213648
20100601;51.8;52.5;50.3;50.42;3341018
20100602;51.05;53.9;50.44;53.88;4052300
20100603;53.74;54.96;52.56;54.87;3633952
20100604;53.9;55.3;50.97;51.5;6327013
20100607;51.78;53.1;49.69;50.57;5122279
20100608;51.26;52.9;50.55;52.68;4139621
20100609;53.09;54.27;51.55;51.91;3208764
20100610;52.91;54.44;52.91;54.39;3456477
20100611;54;54.96;53.48;54.93;2289414
20100614;55.47;56.08;54.32;54.48;3109304
20100615;55.31;55.52;54.43;55.18;3029538
20100616;54.72;55.71;54.37;55.2;1748490
20100617;55.21;55.57;54.26;55.03;2565500
20100618;55;55.28;54.49;55.11;3026786
20100621;56;56.95;54.76;55.31;3035985
20100622;55.31;55.68;52.91;53.23;3001868
20100623;53.29;53.96;52.63;53.42;2689956
20100624;52.91;54.11;51.99;52.3;2808076
20100625;53.12;54.99;52.31;54.89;7172980
20100628;54.47;54.78;52.47;52.71;3095236
20100629;51.67;51.88;49.77;50.12;4140504
20100630;50.13;50.68;49.03;49.19;3688174
20100701;49.26;49.99;47.89;49.54;3264852
20100702;49.35;50.33;48.79;49.17;2601519
20100706;50.17;51.35;49.39;49.93;2595061
20100707;50.06;51.91;49.62;51.9;2728844
20100708;52.44;53.4;51.88;53.11;3524052
20100709;52.95;53.45;52.13;52.79;1864867
20100712;52.65;53.3;52.34;52.77;1612657
20100713;53.5;54.16;53.26;53.41;2623209
20100714;53.06;54.24;52.58;53.32;2103288
20100715;53.5;53.5;51.97;53.1;2122157
20100716;52.56;52.77;50.57;51.14;3106640
20100719;51.34;51.76;50.34;51.01;2301723
20100720;50.24;52.25;50.01;52.08;2881389
20100721;52.27;52.32;50.77;51.21;2412489
20100722;51.93;52.37;51.39;51.6;2110293
20100723;51.4;51.61;50.3;51.17;2336137
20100726;51.11;52.21;51.11;51.86;1710014
20100727;51.93;51.97;49.56;50.28;3037459
20100728;50.47;50.93;50.01;50.28;1665266
20100729;50.87;51.01;49.74;50.29;1824706
20100730;49.79;50.49;48.57;48.75;3823896
20100802;49.66;51.43;49.53;51.26;2619572
20100803;51.15;51.43;50.6;50.85;2103666
20100804;51.03;51.88;50.76;51.5;1599504
20100805;51.13;51.45;50.56;51.22;1769341
20100806;48.23;49.87;47.63;49.63;6882417
20100809;50.09;50.3;49.06;49.97;2628580
20100810;49.4;50.71;49.25;50.35;4795653
20100811;49.3;49.59;48.37;48.58;2478709
20100812;47.7;48.93;47.52;47.68;2961105
20100813;47.66;47.97;46.86;47.09;4069104
20100816;46.75;47.1;46.06;47.05;2696386
20100817;47.54;47.8;46.9;47.58;2446770
20100818;47.39;47.5;45.98;46.68;3028568
20100819;46.5;46.8;45.56;45.76;2953664
20100820;45.63;45.85;45.22;45.71;2826135
20100823;45.82;46.48;45.7;45.87;1991600
20100824;45.15;45.24;43.77;44.31;3543190
20100825;43.96;43.99;42.71;43.73;3756723
20100826;44.04;44.51;43.09;43.31;2293054
20100827;43.78;44.81;42.9;44.7;2156428
20100830;44.62;44.97;43.77;43.78;2274808
20100831;43.58;44.16;42.96;43.44;2879597
20100901;44.14;45.03;43.65;44.97;3099087
20100902;45.04;45.04;44.22;44.75;1631179
20100903;45.17;45.69;44.9;45.17;2088822
20100907;44.63;44.95;44.17;44.36;2167109
20100908;44.36;45.32;44.36;45.14;2098546
20100909;45.72;45.75;44.26;44.69;1741069
20100910;44.81;46.28;44.81;46.1;3013557
20100913;46.58;46.58;45.82;46.15;1568369
20100914;45.94;46.57;45.65;46.1;1544837
20100915;45.87;46.08;45.37;45.79;2782545
20100916;46.1;46.35;45.22;45.5;2482320
20100917;45.54;45.54;43.92;44.56;7070634
20100920;44.71;44.94;43.68;43.87;4783193
20100921;44;45.13;43.64;44.81;3891448
20100922;44.85;45.47;44.85;45.18;3678559
20100923;44.65;45.39;44.32;44.84;2191414
20100924;45.57;46.44;45.03;46.06;2731149
20100927;46.12;46.49;45.6;45.63;1564075
20100928;45.68;45.99;45.04;45.89;1781210
20100929;45.51;46.97;45.38;46.91;2818785
20100930;47.24;47.43;45.86;46.49;2987841
20101001;47.06;48.3;46.99;48.09;3013833
20101004;47.69;48.43;47.59;47.86;3140527
20101005;48.38;48.88;47.72;48.67;2108886
20101006;48.64;49.72;48.6;49.26;2368656
20101007;49.51;49.54;48.81;49.28;1932984
20101008;49.34;49.91;48.99;49.73;1677890
20101011;49.5;50.32;49.4;49.78;1305947
20101012;49.44;49.72;48.9;49.46;1306650
20101013;49.86;50.12;49.18;49.38;2852847
20101014;48.94;49.87;48.94;49.51;2070677
20101015;49.85;50.42;49.58;50.02;3067045
20101018;49.94;51.03;49.78;50.67;2235405
20101019;49.89;50.05;49.27;49.74;3004942
20101020;49.78;50.41;49.58;50.06;1448639
20101021;50.23;50.84;48.84;49.4;2113313
20101022;49.74;49.74;48.25;48.66;1978219
20101025;49.02;49.46;48.56;48.73;1334632
20101026;48.43;48.84;47.59;47.88;2012424
20101027;47.46;47.95;46.83;47.88;1752998
20101028;48.2;48.46;47.17;47.47;1440429
20101029;47.26;48.02;47.07;47.86;2033706
20101101;48.44;48.96;47.68;48.04;1421914
20101102;48.59;49.18;47.93;48.87;2036370
20101103;45.25;45.25;43;44.32;16100720
20101104;44.88;44.88;43.16;44.15;6261827
20101105;44.33;44.43;43.5;44.31;3639139
20101108;44.6;45.67;44.38;44.73;4667321
20101109;45.07;46.4;44.93;46;4431982
20101110;46.21;47.05;46.04;46.94;2815089
20101111;46.61;47.5;46.61;47.06;2207935
20101112;46.56;46.73;45.62;46.03;2354843
20101115;46.75;47.11;46.04;46.22;2132347
20101116;45.71;45.71;44.8;45.53;2619367
20101117;45.64;45.96;44.99;45.09;2018050
20101118;45.26;46.36;45.03;46.06;2425701
20101119;45.83;46.54;45.57;46.48;2210319
20101122;46.35;46.82;45.49;46.25;1281875
20101123;45.58;45.6;44.25;44.35;2950056
20101124;44.65;45.03;44.27;44.9;1756335
20101126;44.49;44.9;44.42;44.46;461974
20101129;44.32;44.82;43.81;44.61;1800093
20101130;44.21;44.94;44.01;44.48;2228149
20101201;45.25;45.86;44.78;45.82;2405561
20101202;45.77;47;45.77;46.93;1986565
20101203;46.73;47;46.39;46.87;1668842
20101206;46.78;47.35;46.76;47.19;1466636
20101207;47.78;48.04;46.22;46.36;2378506
20101208;46.59;46.77;45.71;46.1;1494230
20101209;46.18;46.71;45.89;46.12;2057583
20101210;45.97;46.22;45.37;45.38;1977926
20101213;45.75;46.25;45.3;45.35;2266366
20101214;45.41;46.04;45.09;45.83;1838968
20101215;45.68;46.1;44.93;45.06;1800353
20101216;45.09;45.36;44.88;45.26;1001827
20101217;45.21;45.9;45.04;45.84;2423911
20101220;45.94;46;44.94;45.73;2033409
20101221;45.87;46.22;45.55;45.83;849996
20101222;45.96;46.29;45.73;46.1;883395
20101223;45.3;46.03;45.16;45.73;2342803
20101227;45.63;45.72;44.77;45.06;1357870
20101228;45.26;45.33;44.96;44.99;1348068
20101229;45.24;45.77;44.99;45.6;1055060
20101230;45.61;46.03;45.44;45.88;1164159
20101231;45.83;46.06;45.66;45.71;1021161
20110103;46.23;46.75;46.14;46.18;1750324
20110104;46.54;46.64;45.7;46.07;2062631
20110105;45.63;46.5;45.42;46.17;1736227
20110106;46.68;47.22;46.15;46.41;2589199
20110107;46.63;47.18;46.46;47.13;2415086
20110110;47.08;47.5;46.91;47.48;2574786
20110111;47.72;48.44;47.39;48.37;2919266
20110112;48.75;49.66;48.47;49.25;2588391
20110113;49.12;49.29;48.52;48.93;1668126
20110114;48.9;50.36;48.63;50.29;2180554
20110118;50.42;51.61;50.17;51.44;3007291
20110119;51.43;51.5;50.39;50.72;2898114
20110120;49.89;50.75;49.62;50.68;2445782
20110121;51;51.29;50.25;50.86;2405969
20110124;50.68;51.07;50.31;50.87;1642228
20110125;50.79;50.79;49.47;49.94;1973754
20110126;50.19;51.47;50.13;51.14;2319180
20110127;50.96;52.07;50.87;51.63;2591077
20110128;51.69;52.58;51.09;51.27;2829304
20110131;51.37;53.29;51.37;53.2;2308001
20110201;53.36;54.14;52.93;53.69;2263920
20110202;53.51;54.15;53.17;53.62;1494763
20110203;53.45;53.62;52.81;53.53;974487
20110204;53.65;53.75;52.86;53.39;1654132
20110207;53.68;54.24;52.72;52.8;1741725
20110208;52.91;52.91;51.78;52.38;2115933
20110209;52.15;52.66;51.38;51.98;1704065
20110210;51.74;52.35;51.55;52.12;1822769
20110211;51.92;52.25;51.53;51.65;1520140
20110214;51.68;53.27;51.68;52.45;2121568
20110215;52.4;53.1;51.58;51.78;2115916
20110216;52.04;52.68;51.47;51.5;2324135
20110217;51.64;52.29;51.17;52.11;3064115
20110218;53.42;54.9;53.41;54.45;3826021
20110222;54.93;55.81;54.05;54.16;2898879
20110223;54.26;57.37;54.26;57.2;4150628
20110224;57.3;57.59;54.9;55.09;3623460
20110225;55.35;56.25;55.02;55.88;1651015
20110228;56.05;56.62;55.78;56.16;1751690
20110301;54.75;56.1;53.94;53.97;4546092
20110302;52.93;54.48;52.19;54.35;7781715
20110303;54.66;55.64;53.99;55.55;3034842
20110304;55.41;55.79;54.2;54.69;2175249
20110307;55.12;55.7;54.09;54.29;1858946
20110308;54.27;54.45;53.04;53.1;1746972
20110309;53.07;53.82;52.6;52.9;1736603
20110310;52.27;52.27;51.21;51.42;2631229
20110311;51.31;53.28;51;52.83;1886022
20110314;52.54;53.55;52.07;53.27;1976311
20110315;51.64;53.24;51.33;52.72;2427020
20110316;52.9;53.76;51.54;52.25;2537649
20110317;53.39;54.58;52.94;54.34;2100909
20110318;54.88;55.23;53.52;53.97;2969836
20110321;54.75;55.73;54.5;55.7;2263347
20110322;56.17;57.22;56;56.68;3279913
20110323;56.72;57.03;56;57.03;4043789
20110324;57.46;57.85;56.51;57.78;2879322
20110325;57.91;59.07;57.38;58.77;2581453
20110328;58.39;59.86;58.17;59.22;3105102
20110329;58.76;59.88;57.9;59.84;3033079
20110330;60.15;60.72;59.18;59.6;3605383
20110331;59.62;60.05;59.21;59.26;2845019
20110401;59.59;59.65;58.91;59.2;4159816
20110404;59.45;59.91;59.03;59.19;1913820
20110405;59.02;59.37;58.32;58.46;1931435
20110406;58.87;58.98;57.38;57.41;2033997
20110407;57.27;57.84;56.38;57.33;2209426
20110408;57.73;58.2;56.9;57.33;1719727
20110411;57.28;57.49;55.93;56.34;1436063
20110412;55.77;55.77;54.08;54.62;2775441
20110413;55.05;56.1;54.82;55.31;1941731
20110414;54.85;55.65;54.35;55.36;1816620
20110415;55.43;55.94;54.78;55.52;1746306
20110418;54.86;55.2;53.92;54.94;1728714
20110419;54.96;55.2;54.25;54.74;1533882
20110420;55.67;56.01;55.23;55.91;1807238
20110421;55.67;56.14;55.3;55.94;1026543
20110425;56;56.1;54.87;55.17;967836
20110426;55.37;55.89;54.99;55.86;1081957
20110427;56.01;56.1;54.6;55.88;1250446
20110428;55.81;56.53;55.17;55.99;1534155
20110429;55.93;56.78;55.54;56.53;1315517
20110502;56.74;56.9;55.24;55.47;1852839
20110503;55.35;55.35;53.62;54.08;2061237
20110504;53.88;53.88;52.42;53.14;1933938
20110505;52.13;52.72;50.92;52.18;3467777
20110506;54.5;55.68;53.07;53.72;3601015
20110509;55.12;55.95;54.75;55.66;2382989
20110510;55.71;55.89;54.89;55.43;1666182
20110511;55.23;55.34;53;53.35;2174176
20110512;52.73;53.46;52.07;52.76;2214741
20110513;52.91;53.4;52.21;52.72;1817576
20110516;52.59;53.86;52.12;52.35;1566901
20110517;52.07;53.09;51.89;52.81;1971012
20110518;52.95;53.73;52.75;53.31;1937365
20110519;53.49;53.61;52.54;53;1550177
20110520;53.04;53.97;52.44;53.43;2023321
20110523;52.55;52.8;51.99;52.13;1945091
20110524;52.58;53.55;52.43;53.03;2340642
20110525;52.75;53.96;52.75;53.6;1595483
20110526;53.35;53.75;52.7;53.62;1183959
20110527;53.94;54.54;53.7;54.08;1301673
20110531;55.01;55.1;53.55;54.57;1783603
20110601;54.76;55.84;53.98;54.1;3218643
20110602;54.21;55.86;54.21;55.46;3120475
20110603;54.68;55.9;53.9;55.28;2253054
20110606;55.27;56.02;54.52;54.53;2714316
20110607;54.76;55.02;54.01;54.03;2131498
20110608;54.06;55.43;54.06;54.47;1979824
20110609;54.78;55.59;54.52;55.39;1840144
20110610;55;55.23;53.79;53.84;1900447
20110613;54;54.28;51.83;52.36;2798490
20110614;53.13;53.49;52.31;52.52;2683183
20110615;52.08;52.67;51.13;51.44;2712079
20110616;51.28;51.78;50.63;50.81;2798355
20110617;51.21;51.5;50.36;51.13;2957903
20110620;50.76;50.96;50.11;50.45;2520134
20110621;50.76;51.59;50.62;51.1;2048394
20110622;50.87;51.7;50.61;50.67;2766250
20110623;49.53;50.12;48.31;50.08;2841307
20110624;50.04;50.21;49.04;49.14;1964544
20110627;48.7;50.22;48.61;50.17;2906130
20110628;50.3;51.4;50;51.21;1864918
20110629;51.32;52.08;50.8;51.55;1840520
20110630;51.78;52.42;51.62;52.28;1888254
20110701;52.19;52.28;51.2;51.54;3342596
20110705;51.66;52.5;51.48;51.62;1484804
20110706;51.52;51.66;50.88;51.14;1271806
20110707;51.84;52.01;51.22;51.78;1901003
20110708;50.99;51.31;50.58;50.96;1703069
20110711;50.22;50.22;49.29;49.51;1572555
20110712;49.42;50.06;49.26;49.45;1982809
20110713;49.76;50.55;49.29;49.47;1944008
20110714;49.73;49.79;48.2;48.36;2719664
20110715;50;51.06;49.87;50.6;6753343
20110718;50.7;51.3;50.24;50.76;2669186
20110719;51;52.14;51;52.02;2365103
20110720;52.41;52.41;51.77;51.91;2096221
20110721;52.32;52.95;52.05;52.78;1938974
20110722;52.78;53.3;52.51;53.29;1646200
20110725;52.6;53.73;52.4;53.11;1899200
20110726;53.11;53.94;52.31;53.29;2117593
20110727;53;53.01;51.99;52.04;2040943
20110728;52.02;52.67;51.54;51.72;2368329
20110729;51.09;51.68;50.75;51;3194727
20110801;51.95;52.16;50.25;50.81;1830414
20110802;50.43;51.19;49.54;49.61;2089840
20110803;49.64;49.67;47.79;48.99;3056325
20110804;48.26;48.26;45.73;46.07;4384643
20110805;49.14;50.61;46.7;47.96;9015695
20110808;46.8;46.91;43.53;44.3;5690300
20110809;45.14;45.95;43.05;45.43;7489141
20110810;45.26;45.54;43.34;43.5;5572762
20110811;43.98;47.14;43.48;46.57;4510091
20110812;48.39;48.92;46.57;47.08;3594786
20110815;47.6;48.24;47.32;48.15;2518023
20110816;47.5;47.85;46.56;47.29;2897385
20110817;47.64;48.53;46.51;47;2047494
20110818;45.83;45.83;43.43;43.82;3686981
20110819;43.31;44.89;43.25;43.79;3256742
20110822;44.95;45.25;42.93;43.18;3102863
20110823;43.16;44.5;42.79;44.49;3603894
20110824;44.18;45.02;43.92;44.96;2312909
20110825;45.31;45.62;43.77;44.13;2778008
20110826;43.87;45.08;43;44.93;2278348
20110829;45.61;45.84;44.91;45.78;2100410
20110830;45.55;46.38;44.88;46.1;1664430
20110831;46.49;47.09;45.72;46.3;2746748
20110901;46.66;47.08;45.65;45.71;1696398
20110902;44.68;45.1;43.91;44.18;2460659
20110906;42.87;43.56;42.47;43.48;2561701
20110907;44.24;45.43;44.05;45.34;1797581
20110908;44.81;45.99;44.39;44.63;2427209
20110909;43.66;44.14;42.46;42.66;2626119
20110912;42.27;43.08;41.96;43.06;2216001
20110913;43.22;43.71;42.66;43.38;1594884
20110914;42.93;44.43;42.55;43.88;2238800
20110915;44.44;45.2;44.06;45.2;1953589
20110916;45.57;45.63;44.63;45.08;2558726
20110919;44.06;44.31;42.98;43.88;1835985
20110920;44.11;44.78;43.44;43.56;1880769
20110921;43.49;44.16;41.71;41.72;2248473
20110922;40.42;40.47;37.56;38.38;5312592
20110923;37.68;38.59;36.67;36.86;3853806
20110926;37.63;38.4;36.57;38.34;3796072
20110927;39.33;40.26;39.02;39.31;3145866
20110928;39.37;39.4;37.07;37.15;2430404
20110929;38.02;38.18;35.94;36.89;3433797
20110930;35.7;36.38;34.78;35.51;3838976
20111003;35.07;35.12;33.9;34.2;4916273
20111004;33.67;37.02;33.41;36.83;6098669
20111005;36.85;38.48;36.61;38.4;3756637
20111006;38.19;39.45;37.76;39.27;2914926
20111007;39.53;39.62;37.37;37.45;3260235
20111010;38.42;39.73;38.37;39.7;2546927
20111011;39.32;40.24;38.99;40.07;3046464
20111012;40.4;41.35;40.15;40.48;2270528
20111013;40.01;40.27;38.82;40.11;2409410
20111014;41.05;42.04;40.85;41.99;2318758
20111017;41.65;42.05;40.56;40.7;1934624
20111018;40.76;43.31;40.12;43.01;3719379
20111019;42.83;44.59;42.76;43.94;4234017
20111020;43.76;44.02;42.55;43.67;3146614
20111021;44.48;45.54;44.11;45.31;2772814
20111024;45.56;45.91;45.12;45.54;3076786
20111025;45.54;45.54;43.63;43.76;3018442
20111026;44.49;44.64;43.17;43.71;3857796
20111027;45.5;47;44.92;46.41;3704662
20111028;45.82;47.63;45.82;47.59;3045307
20111031;46.7;46.75;44.65;44.72;2728081
20111101;42.99;43.5;41.94;42.94;3762258
20111102;45.36;48.91;45.07;48.02;8562339
20111103;48.79;50.31;48.1;50.02;4567499
20111104;49.42;51.26;49.14;50.84;3700761
20111107;50.74;51.2;49.87;50.59;2779026
20111108;50.88;51.12;49.73;50.96;2497758
20111109;49.72;50.33;49;49.12;2905439
20111110;49.71;50.39;49.22;50.02;2344158
20111111;50.61;52.03;50.59;52.01;2439908
20111114;51.47;52.24;50.65;51.89;2786351
20111115;51.67;51.96;51;51.18;1923544
20111116;50.97;51.71;50.27;50.35;4228389
20111117;50.2;50.65;48.08;48.51;2508288
20111118;49.19;49.93;48.02;48.92;2231704
20111121;47.86;48.33;47.03;48.01;1466484
20111122;47.79;48.16;46.82;47.49;1749376
20111123;46.81;46.95;45.7;45.81;2427913
20111125;45.43;46.42;45.39;45.44;611631
20111128;47;48.4;46.93;47.8;1944811
20111129;48.14;49.46;48.01;49.12;2510015
20111130;51.02;52.21;51.02;51.87;3641116
20111201;51.82;52.5;50.85;51.27;1935068
20111202;51.9;52;51.06;51.28;1628042
20111205;52;52.43;50.62;51.06;2578902
20111206;51.23;53.1;51.04;52.45;2136168
20111207;52.06;52.15;50.83;51.52;2082950
20111208;51.27;52.29;50.07;50.32;2482280
20111209;50.24;52.21;50.24;51.88;2846148
20111212;51.05;51.13;49.58;50.53;2179995
20111213;50.88;51.57;48.58;49.25;2913177
20111214;48.49;48.53;46.56;46.59;4634303
20111215;47.28;47.78;46.51;47.22;3018292
20111216;47.72;48.95;47.37;48.84;3651031
20111219;48.76;48.87;47.6;47.79;1886192
20111220;48.92;49.6;48.68;48.99;2350401
20111221;49.13;49.35;48.26;49.09;2440207
20111222;49.11;49.32;48.97;49.17;2934204
20111223;49.24;49.56;48.62;49.14;1556740
20111227;49.2;49.87;49.05;49.51;1619096
20111228;49.62;49.75;48.06;48.22;1506632
20111229;48.19;49.09;48.19;49.03;1343303
20111230;49.03;49.55;48.9;49.26;1284901
20120103;50.31;51.07;50.2;50.73;2798696
20120104;50.73;51;50.31;50.8;2459187
20120105;50.58;51.26;49.91;51.08;2537598
20120106;51.13;51.89;51;51.22;2246759
20120109;51.24;51.53;50.75;51.09;1762789
20120110;52.7;53.63;52.45;52.76;3120716
20120111;52.39;52.75;51.48;51.59;2238539
20120112;51.82;52.35;51.27;51.94;2329932
20120113;51.34;51.73;50.72;51.52;1741367
20120117;52.35;52.56;51.33;51.86;1526959
20120118;51.81;52.91;51.41;52.69;1608468
20120119;52.85;53.27;52.34;52.54;2719802
20120120;52.44;52.49;51.22;51.58;2785493
20120123;52.42;53.32;52.19;52.8;2734466
20120124;52.32;52.45;51.75;52.28;1933510
20120125;52.14;53.6;51.51;53.41;2165571
20120126;53.65;53.75;52.12;52.38;2273789
20120127;52.17;52.63;51.75;52.06;1599288
20120130;51.51;52.72;51.09;52.66;2172755
20120131;52.79;53.14;52.35;53.07;2789781
20120201;53.48;53.49;52.34;52.95;3328566
20120202;52.83;54.07;52.48;53.24;2140686
20120203;54.02;55.06;53.55;54.55;2214842
20120206;54.74;55.28;54.39;55.03;3069419
20120207;55;55.75;54.53;55.57;1829667
20120208;55.72;55.85;54.78;55.71;1545334
20120209;55.53;56.83;55.44;56.23;1982658
20120210;55.39;55.92;55.08;55.92;1843635
20120213;56.27;56.83;56.09;56.69;1986728
20120214;56.58;56.91;56.18;56.88;2420452
20120215;57.25;57.95;56.68;57.42;2995393
20120216;57.5;59.41;57.27;58.81;3305058
20120217;59.53;59.99;56.75;57.18;6169889
20120221;57.99;58.5;57.5;57.83;3415892
20120222;57.98;58.76;57.78;57.83;2863870
20120223;57.93;58.3;57.25;58.25;2004542
20120224;58.33;59.04;58.1;58.78;1681047
20120227;58.67;58.9;57.81;57.81;2291908
20120228;57.96;58.6;57.75;58.31;2436066
20120229;58.37;58.6;56.69;56.93;3222430
20120301;57.13;58.51;57.13;58.46;2571891
20120302;58.2;58.39;56.54;56.95;2349691
20120305;56.76;56.81;55.68;56.6;1586746
20120306;55.56;56.41;55.11;56.36;2629261
20120307;56.36;56.83;56.02;56.57;1948204
20120308;57.36;57.66;56.66;57.21;1564945
20120309;57.25;57.88;57.03;57.49;1356804
20120312;57.62;57.62;56.26;56.87;1445283
20120313;56.93;58.47;56.51;58.43;2607036
20120314;58.41;58.48;57.04;57.34;1697623
20120315;57.42;58.14;57.03;57.82;1953667
20120316;58.18;58.94;57.9;58.39;2737206
20120319;58.33;58.99;58.06;58.7;1693046
20120320;58.07;58.07;57.08;57.36;1726117
20120321;57.36;57.55;56.53;56.91;1651652
20120322;56.18;56.57;54.93;55.18;2281245
20120323;55.24;56.33;55.08;55.87;2299485
20120326;56.38;56.6;55.81;56.08;1370617
20120327;56.23;56.27;55.46;55.64;1460368
20120328;55.37;55.48;54.25;54.82;1747884
20120329;54.25;54.63;53.58;54.51;1442717
20120330;54.74;55.74;54.38;55.55;1771968
20120402;55.5;57.17;55.16;56.68;1949583
20120403;56.32;56.85;56.09;56.78;2323841
20120404;56.03;56.2;54.85;55.26;1563803
20120405;55.06;55.74;54.43;54.59;2314854
20120409;53.48;54.02;53.31;53.72;2722536
20120410;53.72;53.86;51.91;52;3302045
20120411;52.59;52.76;51.26;51.48;3008653
20120412;51.5;52.83;51.47;52.61;3172598
20120413;52.37;52.65;51.55;51.67;1509943
20120416;51.93;52.56;50.92;51.39;1537239
20120417;51.96;52.66;51.77;52.4;2054634
20120418;52.2;52.49;51.79;52.09;1906746
20120419;52.15;52.65;51.66;51.98;1561042
20120420;52.45;52.75;51.4;51.52;1688214
20120423;50.31;51.89;50.3;51.8;1886066
20120424;52.06;52.47;51.7;52.23;2256145
20120425;52.69;53.26;52.3;53.22;2859115
20120426;53.21;54.44;53.01;54.26;2343473
20120427;54.51;54.62;54.05;54.51;1944003
20120430;54.44;54.97;53.92;54.91;1500983
20120501;55.15;56.12;54.9;55.62;1777080
20120502;54.95;54.95;54.11;54.64;2072796
20120503;54.5;54.97;53.61;53.86;1942190
20120504;53.2;53.6;52.19;52.65;2167730
20120507;52.24;52.93;51.65;52.39;1634749
20120508;51.81;52.1;50.21;52;2176454
20120509;51.91;52.84;50.38;52.55;3775937
20120510;53.37;53.67;52.76;53.26;2669453
20120511;52.74;53.28;51.96;52.12;2236489
20120514;51.45;51.45;50.44;50.52;1834011
20120515;50.5;50.85;49.32;49.61;1918980
20120516;49.83;50.8;49.28;49.48;1990649
20120517;49.46;49.66;48.58;48.67;1937409
20120518;48.95;49.31;47.89;48.16;2221543
20120521;48.67;50.13;48.65;50.1;2237077
20120522;50.8;51.74;50.24;50.67;2802254
20120523;50.15;50.9;48.89;50.85;2719844
20120524;51;51.2;49.57;50.4;1903006
20120525;50.28;51.22;50.28;50.88;1780470
20120529;52.23;52.66;51.58;52.43;2326643
20120530;51.67;51.67;49.95;50.5;2780459
20120531;50.38;50.43;48.2;49.65;3675504
20120601;47.94;48.07;45.67;45.84;6707989
20120604;45.98;46.09;44.43;45.2;5037587
20120605;44.81;46.12;44.79;45.94;3293641
20120606;46.52;47.48;46.42;47.46;2753940
20120607;48.29;48.7;47.21;47.73;3279474
20120608;46.91;47.07;45.88;46.94;2358887
20120611;47.68;48.05;45.9;45.97;2084067
20120612;46.31;47.19;46.12;47.09;1928643
20120613;46.9;47.62;46.01;46.35;2262283
20120614;46.45;47.48;46.11;47.23;2549584
20120615;47.45;48.39;46.96;48.32;2905116
20120618;48.02;48.09;47.18;47.37;2246219
20120619;47.85;48.16;47.29;47.98;2251022
20120620;48.07;48.39;46.07;46.47;3099437
20120621;46.43;46.64;43.17;43.24;5959605
20120622;43.85;43.99;42.94;43.81;3315877
20120625;42.85;42.94;41.83;42.45;3099122
20120626;42.46;42.78;41.24;41.98;3709847
20120627;42.13;43.09;42.04;42.87;5037318
20120628;42.6;42.92;41.95;42.58;4022510
20120629;43.98;45.13;43.79;45.06;4976364
20120702;44.77;44.97;43.77;44.47;1715883
20120703;45;47.5;45;47.45;2845125
20120705;47.04;47.25;45.88;46;2050898
20120706;44.89;45.68;44.54;45.32;1721574
20120709;45.21;46.44;45.09;45.75;2357474
20120710;45.74;45.98;44.38;44.68;2352179
20120711;44.86;46.31;44.86;45.94;2693211
20120712;45.08;45.92;44.55;45.53;2934797
20120713;45.69;46.54;45.6;46.47;1851580
20120716;46.22;46.92;45.65;46.62;1799478
20120717;47.09;47.72;46.17;47.62;2547446
20120718;47.43;48.72;47.28;48.35;2559005
20120719;48.6;49.32;48.39;49.13;3074892
20120720;48.74;49.65;48.13;49.62;2748693
20120723;48.32;48.74;47.12;48.6;3235133
20120724;48.65;48.95;47.21;47.75;1858156
20120725;48.25;48.37;47.11;47.85;1512167
20120726;48.67;49.29;48.13;48.71;2020892
20120727;48.99;50.74;48.73;50.51;2395351
20120730;50.34;50.81;49.22;49.78;1689179
20120731;49.71;49.95;48.98;49.01;1618841
20120801;50.23;50.6;48.52;50.23;2246866
20120802;49.07;49.57;47.64;48.06;2484559
20120803;51.53;54.38;51.07;53.38;5258652
20120806;53.49;53.67;52.76;52.87;2520073
20120807;52.87;54.75;52.79;54.37;2488071
20120808;53.71;54.53;53.71;53.95;1899287
20120809;53.77;55.4;53.72;54.71;2075320
20120810;54.06;55.18;54;55;1510148
20120813;55.45;55.45;54.41;54.65;1332023
20120814;55.13;55.56;54.86;55.18;1943204
20120815;54.84;55.37;54.49;54.91;1494592
20120816;54.88;55.54;54.7;55.5;1518507
20120817;55.67;55.86;55.05;55.6;1318286
20120820;55.76;55.78;54.59;54.78;1292065
20120821;55.14;55.43;54.14;54.39;1536928
20120822;54.28;54.6;53.55;54.46;1553134
20120823;54.38;54.59;53.22;53.51;1432295
20120824;53.48;54.59;53.29;54.46;2185117
20120827;54.49;54.98;54.08;54.59;1408011
20120828;54.62;54.96;54.02;54.41;1757253
20120829;54.44;54.49;53.74;54.03;1290081
20120830;53.73;53.73;52.72;52.95;1281360
20120831;53.5;54.31;53.05;54.15;1710057
20120904;54.13;54.88;53.6;54.66;2072009
20120905;54.54;54.76;54.23;54.27;1587018
20120906;54.91;56.61;54.8;56.21;2080635
20120907;55.48;56.64;55.37;56.44;2352252
20120910;56.5;57.24;56.05;56.2;1767475
20120911;56.41;56.73;55.97;56.22;1666269
20120912;56.43;56.97;55.8;56.49;1652476
20120913;56.72;58.06;55.9;57.59;1998421
20120914;57.87;59.85;57.87;58.81;1928663
20120917;58.71;59.12;57.94;58.2;1461090
20120918;58.12;58.41;57.28;57.94;1141169
20120919;57.83;57.9;56.75;56.78;1643959
20120920;56.46;57.04;55.75;56.78;2074098
20120921;57.28;57.37;56.63;56.98;2010097
20120924;56.3;56.87;56.08;56.61;1246237
20120925;56.85;57.21;56.13;56.21;1534193
20120926;55.94;56.04;55.2;55.3;1366301
20120927;55.88;56.89;55.75;56.6;976828
20120928;56.3;56.5;55.57;56.03;1147684
20121001;56.5;57.35;56.46;57.1;1710911
20121002;57.4;57.64;56.94;57.57;1808559
20121003;57.42;57.5;55.4;55.54;2118910
20121004;55.97;56.13;55.33;55.71;2020558
20121005;55.76;56.2;54.75;54.96;1647888
20121008;54.43;54.99;54.32;54.91;1131460
20121009;54.96;55.9;54.64;55.53;1319353
20121010;55.43;55.68;54.6;54.75;1329154
20121011;55.21;55.64;54.8;54.92;997436
20121012;54.99;55.16;53.94;54.39;1279153
20121015;54.33;55.29;53.88;55.13;1489413
20121016;55.86;56.95;55.76;56.87;1643003
20121017;57.27;57.83;56.78;57.62;1437065
20121018;57.27;57.54;56.87;57.38;1085707
20121019;57.27;57.73;56.28;56.53;1511977
20121022;56.39;56.47;55.22;56.06;1858670
20121023;55.03;55.45;54.52;55.08;2000451
20121024;55.44;55.77;54.89;55.35;1887012
20121025;56.03;56.22;55.46;56.21;1150708
20121026;56.15;57.25;56.01;57.05;2231802
20121031;57.13;58.28;57.12;58.25;2300846
20121101;58.25;59.3;58.02;58.44;1830924
20121102;58.89;59.26;57.35;57.6;2503788
20121105;57.28;58.53;57.28;58.41;2191747
20121106;61.7;62.25;60.65;60.99;4275927
20121107;60;60.48;59.67;60;3024090
20121108;59.94;60.39;57.86;57.89;2257816
20121109;57.82;58.39;57.23;57.26;2492399
20121112;57.55;57.8;56.72;57.38;1088713
20121113;56.95;58.57;56.85;57.64;1942650
20121114;57.69;57.95;56.5;56.68;1549930
20121115;56.72;58.28;56.66;58.08;2380544
20121116;58.63;58.73;57.4;58.34;2628820
20121119;59.11;60.4;58.91;59.31;1992988
20121120;59.2;59.27;58.28;58.7;1314637
20121121;58.9;59.27;58.7;59.07;1115086
20121123;59.25;59.58;58.83;59.5;584383
20121126;58.73;58.92;57.8;58.33;1251131
20121127;57.77;58.03;57.22;57.54;2559139
20121128;57.05;58.3;56.36;58.18;1612049
20121129;58.8;59.21;58.41;58.82;1418981
20121130;58.7;59.21;58.52;58.81;1451930
20121203;59.12;59.55;58.57;58.62;1286434
20121204;58.47;59;58.35;58.59;900684
20121205;58.75;59.78;58.67;59.36;1723895
20121206;59.15;59.38;58.5;59.18;1208282
20121207;59.36;59.36;58.47;58.68;1335132
20121210;58.6;58.93;58.28;58.87;1066154
20121211;59.16;59.75;58.99;59.37;1358279
20121212;59.6;60.69;59.36;60.37;1812408
20121213;60.16;60.33;59.18;59.26;1894530
20121214;59.19;59.9;59.02;59.5;1200843
20121217;59.7;60.49;59.39;60.49;1249773
20121218;60.54;62.13;60.5;61.96;1855569
20121219;61.8;62.01;61.22;61.23;1519317
20121220;61.4;62.25;61.2;62.19;1532317
20121221;61.21;62.08;60.94;61.78;2333340
20121224;61.56;62.1;61.34;61.39;780621
20121226;61.57;61.58;60.61;60.78;1048290
20121227;60.99;61.08;59.78;60.82;1601045
20121228;60.28;60.47;59.25;59.31;1098150
20121231;59.06;60.49;59;60.4;1780894
20130102;61.7;61.84;60.72;61.84;1832612
20130103;61.75;62.75;61.24;62.09;1464956
20130104;62.12;63.13;61.98;62.9;1259903
20130107;62.61;63.05;62.08;63;1428854
20130108;62.88;63;61.59;62.07;1563064
20130109;62.18;62.59;61.85;62.32;877581
20130110;62.7;63.07;62.28;63.05;1138724
20130111;63.03;63.23;62.5;62.82;1134107
20130114;62.83;63.14;62.12;62.33;1033239
20130115;62.01;62.75;61.88;62.55;1673457
20130116;62.42;62.75;62.2;62.69;1504856
20130117;63;63.28;62.45;63.02;1724544
20130118;63.17;63.54;62.61;63.4;1766447
20130122;63.48;63.67;62.45;63.25;1915662
20130123;63.08;63.3;62.25;62.38;1140996
20130124;62.45;63.2;62.4;62.5;1361961
20130125;62.69;63.27;62.27;62.64;1182679
20130128;62.91;62.91;61.78;62.1;1359116
20130129;62.33;63.6;62.01;63.47;1410800
20130130;63.59;64.72;63.09;63.16;1597410
20130131;62.75;62.99;62.25;62.49;1768107
20130201;63.32;64.39;62.5;64.3;1683760
20130204;63.84;63.9;63.3;63.65;1340578
20130205;64.33;64.64;63.95;64.41;1022175
20130206;63.87;64.96;63.77;64.83;864635
20130207;64.86;65.06;64.03;64.89;1157897
20130208;65.07;66.69;65.07;66.64;1801250
20130211;66.64;66.84;66.06;66.67;1698086
20130212;66.75;67.35;66.4;67.05;1732069
20130213;67.05;67.2;66.35;66.8;1589002
20130214;69.03;69.1;66.54;66.67;2955909
20130215;66.63;67;63.89;64.6;3174770
20130219;65.28;65.79;65.02;65.7;1968210
20130220;65.72;65.87;63.66;63.7;2471891
20130221;63.25;63.53;61.78;62.02;2914234
20130222;62.5;62.92;61.85;62.67;2273041
20130225;62.84;63.48;60.83;60.89;2595326
20130226;61.19;61.93;60.38;61.75;1964286
20130227;61.56;63.57;61.39;63.46;2359889
20130228;63.22;63.98;62.8;62.86;2163873
20130301;62.32;62.68;61.12;61.5;2863420
20130304;61.39;61.44;60.5;60.9;1876222
20130305;61.54;62.53;61.21;62.35;1957797
20130306;62.59;62.98;62.16;62.8;2044372
20130307;62.88;64.12;62.69;63.78;1222500
20130308;64.1;64.46;63.75;64.34;1224688
20130311;64.17;64.69;63.71;64.33;1041984
20130312;64.75;65.2;64.56;65.04;1293054
20130313;65;65.59;64.75;64.94;1317451
20130314;65.25;66;65.14;65.92;1423868
20130315;65.74;66.42;65.21;65.21;2489174
20130318;64.46;65.21;64.16;64.47;1386876
20130319;64.55;64.76;63.36;63.64;1256729
20130320;64.18;64.4;63.09;63.12;1894056
20130321;62.64;63.43;61.93;61.95;2015175
20130322;62.22;62.53;61.81;62.49;1395295
20130325;62.89;63.4;61.52;61.96;1543417
20130326;62.24;64.69;62.19;64.45;2433941
20130327;63.95;64.33;63.1;64.1;1856810
20130328;64.08;64.58;63.72;64.03;1520710
20130401;64.03;64.42;63.32;64.25;1128693
20130402;64.4;65.02;64.02;64.53;1552623
20130403;64.53;64.71;62.88;63.05;1669244
20130404;63.03;63.03;61.32;61.43;2372816
20130405;60.5;62.44;60.38;62.38;2128523
20130408;62.45;63.61;62.27;63.45;1262536
20130409;63.53;64.61;63.1;64.13;1145569
20130410;64.28;65.1;64.24;64.31;1361527
20130411;64.5;64.83;63.86;64.13;1478318
20130412;63.65;63.9;62.01;62.07;2026090
20130415;61.18;61.19;58.07;58.1;2890378
20130416;58.92;59.82;57.91;59.58;2268414
20130417;58.71;58.93;56.73;57.41;3065798
20130418;57.7;57.98;56.03;57.66;3451829
20130419;58.08;58.14;56.47;56.72;2478195
20130422;56.98;58.41;56.76;58.2;2164588
20130423;58.45;58.69;57.64;58.5;2217814
20130424;58.52;60.23;58.5;59.97;1919235
20130425;60.08;61.77;59.68;60.93;2261483
20130426;60.85;60.96;59.5;59.56;2338759
20130429;60.25;61.36;59.94;60.97;1163393
20130430;60.9;61.37;60.3;60.58;1784115
20130501;60.2;60.2;58.88;59.42;1839284
20130502;59.63;60.13;59;59.84;1540174
20130503;60.7;62.1;60.7;61.99;2169587
20130506;62.3;63.37;61.63;63.02;2802975
20130507;66.89;68.98;66.48;67.85;5224626
20130508;68.02;69.39;67.96;68.95;3214709
20130509;69.41;69.5;67.77;68.04;2805616
20130510;67.75;67.75;65.85;66.79;2450037
20130513;66.41;67.27;66.16;66.83;1605053
20130514;67;68.49;66.91;68.33;1979687
20130515;68.25;68.82;67.03;67.35;2108859
20130516;67.25;67.46;66.37;66.61;1980295
20130517;66.9;67.94;66.75;67.63;2620469
20130520;67.69;68.58;67.44;67.81;2037479
20130521;67.89;68.13;67.03;67.14;1245087
20130522;67.08;67.77;64.91;65.47;2020952
20130523;64.49;65.82;64.11;65.7;1814845
20130524;64.86;65.47;64.32;65.42;1205437
20130528;66.23;66.63;64.75;65.56;1753513
20130529;65.17;66.71;65.06;66.42;1574730
20130530;66.17;66.97;65.45;66.35;1217556
20130531;65.86;66.3;64.55;64.55;1719594
20130603;65.08;66.07;64.86;65.88;1452360
20130604;65.74;66.32;65.17;66.08;1776735
20130605;65.83;65.99;64.25;64.26;1445424
20130606;64.46;65.33;63.76;65.32;1496542
20130607;65.55;66.82;65.1;66.34;1118035
20130610;66.17;66.3;65.58;65.81;766750
20130611;64.64;65.16;64.12;64.56;1397313
20130612;65.63;65.89;64.74;64.82;1354683
20130613;64.84;66.75;64.68;66.67;1567516
20130614;66.81;66.81;65.57;65.87;1343807
20130617;66.6;67.17;66.08;66.67;1189670
20130618;66.75;67.98;66.57;67.51;1401154
20130619;67.49;69;67.39;67.8;1704532
20130620;66.86;66.94;64.9;65.5;2200345
20130621;66.12;66.2;64.28;65.2;2393955
20130624;64.44;64.73;62.27;63.71;1981136
20130625;64.51;65.55;64.11;65.08;1722071
20130626;65.6;66.28;64.77;65.93;1253029
20130627;66.58;67.04;65.36;65.5;1805710
20130628;65.22;66.5;65.01;65.84;1713628
20130701;66.89;68.22;66.62;67.66;1616297
20130702;67.62;69.64;67.62;68.94;2170596
20130703;69;69.25;68.41;69.09;854649
20130705;69.53;70.32;69.32;70.2;1140745
20130708;70.75;71.27;69.5;69.88;1715158
20130709;70.47;71.24;70.19;71.11;1774247
20130710;71.35;71.84;70.82;71.14;1767260
20130711;72;73.39;71.44;71.78;2800787
20130712;71.55;72.39;70.96;72.36;1889017
20130715;72.32;72.81;71.29;71.77;1731172
20130716;71.89;72.77;71.88;72.28;1867961
20130717;72.53;73.21;72.33;72.92;1373315
20130718;73.21;74.14;73.11;73.5;1535216
20130719;73.91;74.35;73.25;74.33;1371223
20130722;74.32;75.03;73.77;74.75;1620589
20130723;74.81;74.99;74.01;74.32;1633603
20130724;74.55;74.57;71.58;72.03;3038317
20130725;72.03;73.7;72;73.69;1965400
20130726;73.12;73.36;72.12;72.87;1487274
20130729;72.66;72.76;71.94;72.36;813650
20130730;72.53;72.89;70.78;72.05;1634476
20130731;72.31;74.08;72.31;72.75;1734708
20130801;73.78;76.46;73.78;76.03;1998512
20130802;75.38;76.61;75.13;76.52;1408655
20130805;76.47;77.52;76.08;77.09;1786972
20130806;77.05;77.46;75.65;76.61;2480429
20130807;80.16;80.74;77.64;78.11;4707028
20130808;78.93;80.13;78.16;79.29;2361488
20130809;79.33;79.99;79;79.42;1832214
20130812;79.08;80.22;78.73;79.38;2002189
20130813;79.5;79.58;78.38;79.12;1141332
20130814;79.06;79.45;78.06;78.2;1274139
20130815;77.77;78.89;77.14;78.3;1275721
20130816;77.77;78.44;77.16;77.75;1250981
20130819;77.76;78.06;76.27;76.35;1376481
20130820;76.35;77.94;76.08;77.31;1199146
20130821;77.19;77.19;75.69;75.92;1180829
20130822;76.36;77.68;76.22;77.2;731472
20130823;77.2;78.39;76.77;78.31;1043024
20130826;78.63;79.81;78.42;78.56;1108980
20130827;78.08;79.28;78;78.14;1138543
20130828;78.47;80.66;78.42;79.73;1758930
20130829;79.36;79.65;78.34;78.55;999170
20130830;78.75;79.16;78.14;78.53;1083263
20130903;79.73;80.25;78.53;79.22;1103841
20130904;78.75;80.5;78.75;80.27;1306160
20130905;80.61;81.31;80.47;80.72;983811
20130906;81.28;82.17;80.29;80.86;1886342
20130909;81.55;82;81.08;81.83;1875448
20130910;81.75;82.36;80.47;81.75;1710253
20130911;81.72;83.69;81.42;83.58;1807687
20130912;83.77;84.39;83.5;84;1565136
20130913;83.88;84.07;83.05;83.22;1044701
20130916;83.77;84;82.54;82.9;1235492
20130917;83.26;84.18;82.89;83.89;1034914
20130918;83.63;86.18;83.6;85.9;1435539
20130919;86.05;86.41;84.68;85.37;1061646
20130920;85.25;85.77;84.27;84.44;1845056
20130923;84.29;84.86;84.06;84.43;1326174
20130924;84.71;86.96;84.31;86.05;2116727
20130925;86.05;86.64;85.37;85.69;1753675
20130926;85.86;86.09;84.91;86.05;966760
20130927;85.62;85.83;84.9;85.37;831870
20130930;83.78;85.17;83.56;84.64;1296874
20131001;84.31;86.42;84.28;86.08;1404686
20131002;85.94;86.18;84.59;86.18;1358822
20131003;85.98;86.12;85;85.9;1257812
20131004;85.96;87.43;85.27;87.3;1603219
20131007;86.11;87.11;85.63;86.42;1711874
20131008;86.17;87.33;85.21;85.73;1772583
20131009;86.17;86.78;84.8;85.76;1919814
20131010;86.7;87.47;86.47;87.43;1516638
20131011;87.16;90.48;87.13;89.5;1950080
20131014;88.68;90.54;88.17;90.53;1230606
20131015;90.13;90.99;89.5;89.99;1518967
20131016;91.24;92.94;90.74;91.15;2293495
20131017;90.84;91.2;89.65;90.7;2321820
20131018;91.33;92.09;90.42;91.9;2154924
20131021;91.5;92.75;91.33;92.16;1202567
20131022;93.4;94.15;91.79;92.58;1964980
20131023;91.56;91.56;88.26;89.22;2720732
20131024;89.03;91.28;88.06;90.72;2040953
20131025;91.18;92.05;90.65;91.72;1292265
20131028;91.92;91.95;90.94;91.21;919321
20131029;91.44;92.89;91.16;92.54;1430861
20131030;93.16;93.43;89.45;90.17;1957858
20131031;89.99;90.46;88.36;89.2;1977155
20131101;89.31;90.02;87.7;89.49;1816582
20131104;90.24;91.8;89.86;91.73;1369631
20131105;91.67;91.67;89.76;89.87;1843349
20131106;90.67;91.45;87.97;88.32;2333414
20131107;89.66;90.12;82.53;85.79;4520676
20131108;85.56;86.63;85.28;85.48;2788858
20131111;85.61;85.82;84.82;85.73;1646598
20131112;85.35;85.54;82.9;83.55;2289828
20131113;83.22;84.93;82.89;84.73;2356640
20131114;84.75;85.04;83.98;84.84;1845344
20131115;85.14;86.07;83.94;85.69;2161212
20131118;85.75;86.1;83.74;84.26;1515979
20131119;84.06;84.74;82.83;83.95;1557655
20131120;84.42;84.88;83.11;83.46;1505344
20131121;84.06;84.98;83.9;84.66;1539640
20131122;85.1;85.21;83.68;85.08;1268277
20131125;84.66;84.69;82.84;84.6;1888928
20131126;84.68;85.74;83.85;84.6;1590385
20131127;84.47;84.85;82.76;83.22;1680345
20131129;83.25;83.56;82.09;82.5;1124205
20131202;83;83.28;81.57;82.5;1517485
20131203;82.23;83.36;80.91;82.74;2082694
20131204;82.8;84.56;82.75;83.57;1875726
20131205;82.67;83.87;82.08;82.69;2238033
20131206;83.48;83.55;79.94;80.02;3672618
20131209;80.46;80.63;78.16;79.07;4273809
20131210;79.22;80.97;79.07;79.66;2277350
20131211;79.43;79.57;78;78.13;2119951
20131212;78.22;79.66;78.12;79.18;1906618
20131213;78.83;79.68;78.25;79.51;2244315
20131216;79.67;80.99;79.67;79.87;2060288
20131217;80.26;80.26;78.75;79.83;1737093
20131218;79.82;81.19;79.17;81;2983320
20131219;80.83;82.96;80.59;82.67;2537502
20131220;83.06;84.66;82.73;84.26;3134519
20131223;84.63;84.92;83.42;83.81;1514027
20131224;83.91;84.14;83.12;84.13;489091
20131226;84.23;84.77;83.84;84.01;886154
20131227;84.07;84.74;83.84;84.58;843006
20131230;84.48;85.25;83.1;83.68;1405717
20131231;83.67;84.43;83.24;83.92;1054926
20140102;83.29;83.98;82.03;82.51;1472070
20140103;82.88;83.33;81.91;82.28;1346875
20140106;82.39;82.67;81.17;82.01;1824596
20140107;82.54;83.46;81.85;83.43;1643500
20140108;83.01;83.91;82.53;83.39;1428940
20140109;83.71;84.45;82.74;83.5;1769668
20140110;83.73;84.05;83;83.41;1474899
20140113;83.71;84.14;81.49;81.73;1336332
20140114;82.03;84.37;81.82;84.3;1610988
20140115;84.73;86.64;84.7;85.18;2044430
20140116;85.05;85.59;84.35;85.05;1671241
20140117;85.48;85.94;84.46;84.48;1662862
20140121;84.58;85.28;84.07;84.62;1597542
20140122;85.1;86.15;84.63;85.86;1794272
20140123;84.89;85.87;84.12;84.59;2241403
20140124;84.03;84.52;82.56;82.77;2826539
20140127;82.59;82.75;80.63;81.05;1904911
20140128;81.69;83.75;81.14;83.61;1646337
20140129;82.96;83.08;81.77;82.33;1640209
20140130;82.55;83.75;82.33;83.07;1131462
20140131;82.34;83.8;81.59;82.62;1319783
20140203;82.31;83.43;80.75;80.87;2264460
20140204;81.33;84.5;81.25;84.29;3288717
20140205;84.05;84.85;83.39;83.75;2146531
20140206;83.85;86.9;83.85;86.63;2571087
20140207;87.39;88.44;86.57;88.25;2092256
20140210;88.38;88.38;86.54;87.1;1769126
20140211;87.15;88.11;86.78;87.37;1649595
20140212;87.88;88.45;87.25;87.56;1294086
20140213;86.79;88.38;86.3;87.74;1716316
20140214;87.86;88.63;87.45;88.48;1170273
20140218;89.06;90.13;89.01;89.96;1827347
20140219;89.53;90.81;89.2;89.43;1917495
20140220;89.52;91.03;89.08;90.02;2255980
20140221;90.24;90.49;88.97;89;2705516
20140224;89.22;90.81;88.52;90.2;3537181
20140225;91.43;92.57;89.63;92;3732956
20140226;91.81;94.2;91.44;93.22;3607197
20140227;93.21;93.82;92.25;93.74;1889835
20140228;93.86;95.54;93.56;94.71;2538952
20140303;94.53;96;94.31;94.65;2804226
20140304;95.24;96.46;95.17;95.78;2133260
20140305;96.02;96.61;95.03;95.25;1950396
20140306;95.36;96.11;94.66;95.53;1725289
20140307;95.76;95.98;94.1;94.96;1958551
20140310;94.96;94.96;93.56;94.53;1379616
20140311;94.92;95.09;92.66;92.8;2051830
20140312;91.8;93.22;90.83;92.57;2043924
20140313;93.13;93.33;90.89;91.46;1882145
20140314;91.49;93.11;91.45;92.99;1589176
20140317;93.3;94;93;93.62;1361160
20140318;93.7;95.26;93.59;94.58;1582969
20140319;94.68;94.72;93.02;93.77;1582546
20140320;93.81;95.28;93.04;95.17;2011233
20140321;95.96;96.58;94.69;95.82;2665854
20140324;96.13;96.49;94.23;94.8;1730823
20140325;95.59;96.49;95.45;95.79;1909529
20140326;96.28;97.66;95.95;96.06;2058661
20140327;96.15;97.7;96.01;96.73;1767611
20140328;97.24;99.41;97.06;98.58;2025621
20140331;99.24;99.75;97.53;98.09;2071404
20140401;99.38;100.36;98.26;98.98;3422983
20140402;98.27;99.45;98.02;99.11;2858190
20140403;99.33;101.5;99.26;100.65;5219482
20140404;102.67;103.3;98.95;99.77;4030144
20140407;99.72;99.98;97.45;97.93;3146581
20140408;97.78;99.58;97.54;98.71;3293647
20140409;98.94;99.17;97.99;98.95;3826712
20140410;98.63;99.99;97.56;98.11;4706319
20140411;97.67;99.44;97.57;98.63;4581572
20140414;99.52;100.1;98.72;99.96;3427874
20140415;99.63;101.68;99.52;101.11;4695789
20140416;101.48;102.2;100.43;101.01;3650994
20140417;100.84;102.84;100.84;102.45;3253213
20140421;102.98;103.58;101.84;103.53;2404788
20140422;103.27;103.27;102.11;102.34;3332773
20140423;102.53;105.18;102.53;105.08;3445732
20140424;105.5;105.5;103.42;103.48;3715985
20140425;103.25;103.3;98.52;99.04;7169791
20140428;99.94;100;96.53;98.06;5112184
20140429;98.88;101.23;98.83;99.62;4089133
20140430;99.07;99.2;97.01;98;6297708
20140501;98.33;98.77;96.81;97.12;4240561
20140502;97.3;98.25;96.82;97.06;3712934
20140505;96.04;99.71;96.01;99.25;4766434
20140506;102.8;106.5;101.84;103.63;8515778
20140507;104.61;105.45;102.64;104.79;5705837
20140508;104.03;104.56;101.62;101.73;3265809
20140509;102;102.3;100.64;102.28;3709705
20140512;102.57;103.73;101.98;103.64;3351934
20140513;104.58;105.5;104.07;105.17;3426618
20140514;105.39;105.49;103.86;103.9;2415023
20140515;103.97;103.98;101.55;102.74;2608089
20140516;102.57;102.88;101.34;102.5;2846309
20140519;102.5;103.36;101.96;102.3;1832776
20140520;102.22;102.95;101.47;101.89;1937664
20140521;102.7;104.36;102.13;104.16;1777722
20140522;104.29;105.17;103.53;103.68;2458417
20140523;103.89;105.15;103.44;103.97;2535088
20140527;104.44;104.97;103.75;104.73;2072530
20140528;104.86;105.63;104.4;105.19;2725834
20140529;105.42;106.71;105;106.67;2565461
20140530;106.27;106.36;105.25;105.8;2291034
20140602;105.95;106;104.95;105.38;1712411
20140603;105.45;106.66;105.27;106.66;1975029
20140604;106.48;106.73;105.56;106.37;1695842
20140605;106.35;107.91;105.82;107.9;2212057
20140606;108.14;109.56;108.04;109.32;2151401
20140609;110.09;110.75;109;109.51;2366345
20140610;109.39;109.75;108.41;108.69;2174742
20140611;108.25;110.91;108.14;110.7;2684063
20140612;111.46;113.02;111.22;111.63;3800762
20140613;111.77;114.06;110.53;114.02;3130101
20140616;115.21;115.21;113.02;114.03;4075258
20140617;113.95;113.95;111.26;112.39;5247698
20140618;112.58;113.84;111.74;113.54;2912510
20140619;113.14;115.85;112.52;115.8;3866483
20140620;117.05;118.39;116.15;117.98;5556996
20140623;118.52;118.89;116.95;117.41;3329234
20140624;117.18;117.45;112.24;113.02;4577977
20140625;113.32;116.25;113.32;116.02;3456736
20140626;115.68;115.82;114.07;115.42;2355128
20140627;115.23;115.93;114.71;115.84;2801758
20140630;116.08;117.19;115.85;116.86;2344837
20140701;117.44;117.94;116.02;116.55;2793819
20140702;116.86;117.59;115.54;116.23;2649906
20140703;116.27;117.02;115.11;116.75;1677892
20140707;116.4;116.5;115.42;115.73;1574664
20140708;115.37;116.55;115.13;115.98;2511389
20140709;116.1;116.63;115.19;116.56;1938840
20140710;114.88;115.88;113.76;114.96;2212687
20140711;115.74;115.74;113.39;113.65;2482078
20140714;114.65;116.05;114.31;115.69;2956255
20140715;114.91;115.62;112.64;113.44;3367679
20140716;114.62;117.28;114.17;117.1;3182834
20140717;117.48;118.81;115.35;115.55;2288182
20140718;115.36;116.39;114.34;116.04;2605225
20140721;115.86;116.43;115.12;116.15;1594977
20140722;116.75;117.62;115.8;116.55;2600588
20140723;116.7;116.7;115.3;115.95;3621590
20140724;116.48;116.93;115.7;116.2;2864399
20140725;115.58;115.86;114.4;114.82;1981201
20140728;114.82;115.02;113;113.39;2993483
20140729;113.27;115.33;113.19;114.24;2502920
20140730;114.83;115.44;113.36;113.63;1779381
20140731;112.84;113.09;109.37;109.44;4162781
20140801;108.65;109.81;107.16;108.04;3966436
20140804;108.74;112.12;108.08;111.81;3007100
20140805;111.81;111.81;107.51;108.63;4850181
20140806;107.03;108.51;105.63;106.64;5007977
20140807;107.63;107.63;105.4;106.06;2977507
20140808;106.07;107.9;106.07;107.78;2354184
20140811;108.72;109;107.92;108.3;2760744
20140812;107.89;108.49;106.34;106.69;3265911
20140813;107.66;107.88;106.22;106.35;2337379
20140814;107.22;107.23;103.57;103.93;3490654
20140815;103.97;106.42;103.67;106.09;4557934
20140818;106.65;106.91;104.66;105.43;3276046
20140819;106.1;107.35;105.66;107.03;3147466
20140820;107.09;107.45;106.1;107.28;2185882
20140821;107.5;107.52;106.02;107.19;2138759
20140822;106.59;106.84;105.61;106.27;2075667
20140825;106.93;108.25;106.6;107.94;1938369
20140826;108.86;110.47;108.5;109.4;3285701
20140827;109.43;109.45;108.07;108.61;1996698
20140828;108.32;109.08;108.1;108.39;1757040
20140829;108.8;109.98;108.37;109.88;1802696
20140902;109.57;109.85;107.08;107.71;2755508
20140903;108.85;109.08;107.46;107.74;1479234
20140904;107.76;107.99;103.97;104.61;3937570
20140905;104.35;105.29;103.05;105.18;3236407
20140908;104.07;104.07;100.75;101.41;5549802
20140909;101.63;102.49;100.82;101.31;3636027
20140910;100.93;102.14;99.33;102.01;3717147
20140911;100.93;103.13;100.5;103.06;4596770
20140912;102.5;102.57;101.03;101.32;3699845
20140915;100.8;102.41;100.12;101.91;3056044
20140916;102.33;105.9;101.75;105.22;4117680
20140917;105.65;106.09;104.52;105.19;3689602
20140918;105.82;105.99;104.21;104.98;3003894
20140919;105.24;105.9;103.96;104.37;6346213
20140922;103.82;103.86;100.57;101.74;4437043
20140923;101.55;101.63;100.45;100.84;5577332
20140924;100.94;102.87;99.55;102.14;4585582
20140925;102.64;102.7;100.14;100.36;3591610
20140926;100.37;102.41;100.21;101.88;3327471
20140929;100.8;102.06;100.1;101.87;4301482
20140930;101.85;101.85;97.45;99.02;6424066
20141001;99.21;99.73;96.15;96.85;5857099
20141002;95.76;97.64;94.27;97.06;5382663
20141003;97.72;97.72;95.57;96.57;4433900
20141006;96.84;97;94.36;95.09;5115314
20141007;95.02;96.02;93.57;93.61;5518926
20141008;93.31;94.69;90.8;94.56;7724576
20141009;93.64;93.73;90.88;91.96;9684979
20141010;91.07;91.95;88.61;89.83;9915862
20141013;89.25;90.3;83.58;83.76;9448894
20141014;85.4;86.88;83.5;83.84;12229591
20141015;82.03;88.53;81.07;88.17;11110299
20141016;85.19;92.52;85.19;91.27;10111528
20141017;94.2;95.55;90.26;91.22;8665807
20141020;91.63;93.13;90.77;92.76;4420632
20141021;94.35;96.15;94.27;96.03;6299027
20141022;96.76;97;91.98;92.07;7673474
20141023;94.24;94.84;92.4;93.4;9219270
20141024;92.95;93.02;90.2;92.1;5418293
20141027;90.28;90.28;86.95;88.43;7435920
20141028;88.81;91.91;87.55;91.5;6123604
20141029;94.24;95.32;91.76;93.13;5926201
20141030;92.57;93.29;91.03;92.22;3746187
20141031;91.95;95.1;90.74;95.05;5495238
20141103;95.05;96.81;92.89;93.32;7006317
20141104;89.67;90.99;89;90.28;8207985
20141105;95.5;97.47;93.56;96.1;11401915
20141106;95.19;99.18;95.11;98.97;8202186
20141107;99.72;101.58;99.27;99.55;7009155
20141110;101.01;102.25;97.99;98.5;5947797
20141111;98.5;99.07;97.11;98.75;4276835
20141112;98.68;99.35;97.35;97.56;3433698
20141113;96.5;97.44;94.47;95.85;5859272
20141114;96.32;98.36;96.2;98.16;3992708
20141117;97.01;97.38;95.73;96.35;4349405
20141118;96.32;98.26;96.09;97.67;3917678
20141119;98.75;98.8;96.78;98.33;3830803
20141120;98.45;100.29;98.34;99.44;4624090
20141121;102.49;103.04;101.29;101.74;6378712
20141124;101.18;101.74;99.25;99.56;4110890
20141125;100.28;100.32;96.72;96.74;5591953
20141126;96.62;96.63;93.86;94.07;5346334
20141128;87.16;88.43;85.19;86.72;9472136
20141201;85.52;87.58;83.66;87.24;10063494
20141202;87.38;91.33;86.87;90.3;10159637
20141203;91.71;93.6;90.8;91.8;6243943
20141204;90.79;93;89.75;93;5112581
20141205;91.91;92.05;89.78;90.75;7572506
20141208;89.08;89.5;87.51;88.19;8672236
20141209;87;91.12;86.77;89.15;8197573
20141210;86.38;87.26;85.54;86.79;8821704
20141211;87.19;89.76;86.13;86.86;5808149
20141212;85.31;88.42;85.1;86.37;6611854
20141215;87.09;88.16;84.95;85.34;6866988
20141216;83.86;89.39;83.78;85.47;8312974
20141217;87.61;92.21;86.11;91.14;10269454
20141218;93.83;94.39;88.9;92.45;8888550
20141219;93.63;95.09;92.45;95.02;7853411
20141222;94.21;95.62;93.68;95.06;6746568
20141223;95.74;97.27;94.54;96.41;4251671
20141224;95.61;95.64;92.51;94.05;3015309
20141226;94.9;95.2;93.33;93.82;2210553
20141229;94.55;95.21;93.45;94.33;3396978
20141230;93.5;94.33;91.89;92.7;3379372
20141231;91.97;93.55;90.75;92.07;3329161
20150102;91.01;92.99;90.36;92.24;3463489
20150105;89.96;90.78;86.02;86.68;6173633
20150106;85.84;86.6;82.76;84.21;8150001
20150107;85.18;85.73;82.72;83.68;5950338
20150108;84.72;87.65;84.07;86.88;5840270
20150109;87.02;88.03;86.01;87.46;4036602
20150112;85.11;85.35;83.2;84.51;4810322
20150113;84.97;86.66;84.05;85.06;5446131
20150114;84.07;88.09;83.67;87.74;6698177
20150115;89.04;89.5;86.45;86.53;4941725
20150116;86.86;90.54;86.54;90.31;5483464
20150120;89.09;89.78;87.52;89.33;5969472
20150121;90.59;91.4;89.68;90.54;4911939
20150122;91.38;91.38;88.58;90.36;4471638
20150123;90.07;92.52;89.7;90.79;4433693
20150126;91.23;92.39;90.15;92.33;3431089
20150127;91.94;94.41;91.12;93;5282954
20150128;92.33;92.69;87.76;88.1;5773627
20150129;89.12;89.41;86.76;88.91;5188708
20150130;88.16;90.07;87.4;89.03;7469935
20150202;90.99;92.57;89.53;92.52;5615475
20150203;94.72;97.88;94.65;96.31;8906563
20150204;94.4;97.53;93.54;95.19;9869106
20150205;95.71;97.29;95.16;96.19;5596560
20150206;96.99;97.21;95.57;95.79;5297775
20150209;96.6;97.23;95.78;95.95;4249896
20150210;96.65;96.69;93.84;95.26;4308296
20150211;93.84;94.09;92.15;93.2;6332334
20150212;94.96;95.24;93.47;94.8;3944487
20150213;95.94;96.97;95.25;96.92;4158472
20150217;96.08;96.67;95.65;96.49;4234284
20150218;94.81;96.49;94.5;95.31;4533965
20150219;86.68;94.74;86.58;93.8;18682441
20150220;93.09;93.46;90.07;91.08;7937824
20150223;90.06;92.1;89.25;91.93;5501326
20150224;92.85;93;91.26;91.61;4214973
20150225;91.54;93.25;91.29;93.03;5787809
20150226;91.81;92.25;89.61;90.13;5427108
20150227;90.63;90.71;89.29;89.72;3837551
20150302;89.08;89.2;87.08;89.06;5347819
20150303;88.98;91.11;88.6;90.37;4381410
20150304;90.2;90.95;88.55;90.49;3924790
20150305;89.85;90.52;89.37;89.59;2688091
20150306;88.92;90;88.23;88.57;4063583
20150309;88.08;89.25;87.64;87.72;3443595
20150310;86.88;88.57;86.15;86.19;4862440
20150311;86.42;87.37;85.88;86.55;3973714
20150312;87.05;87.19;85.62;85.71;3051652
20150313;85.2;85.66;84.1;85.39;4415592
20150316;85.11;88.03;85.06;87.9;4953790
20150317;86.86;87.97;86.4;86.8;3798569
20150318;86.08;91.37;86;90.66;5386755
20150319;89.4;89.9;88.36;89.53;3558725
20150320;89.75;91.94;89.43;90.68;5980026
20150323;91.25;91.41;89;89;3200732
20150324;89.2;89.94;88.64;88.84;2681222
20150325;89.68;90.65;88.79;89.96;3664807
20150326;91.49;91.93;90.25;91.36;4857083
20150327;90.62;91.12;90.14;90.56;2539128
20150330;91.64;92.5;90.78;92.14;3478914
20150331;91.13;92.47;90.83;91.69;3576030
20150401;92.04;93.35;91.06;91.22;3814311
20150402;90.3;92.97;89.23;92.71;4596338
20150406;93.36;95.4;93.3;94.87;4770004
20150407;95.2;95.99;94.12;94.27;5233202
20150408;95.01;95.58;93.8;94.04;3274411
20150409;94.11;96.07;94.11;95.71;3408669
20150410;95.87;96.6;95.25;96.59;2570412
20150413;96.75;96.9;94.2;94.69;3111389
20150414;95.66;96.95;95.34;96.46;3204352
20150415;96.76;98.34;96.43;97.96;5859464
20150416;97.83;98.95;97.17;98;4054436
20150417;97.04;97.47;96.39;97.23;3201209
20150420;97.18;99.01;97.18;97.74;3130708
20150421;97.83;98.32;96.36;96.59;3238541
20150422;96.94;98.6;96.3;97.7;2897780
20150423;97.98;99.25;97.84;98.27;2708426
20150424;97.9;97.97;95.91;96.72;3139607
20150427;97.55;97.96;96.56;97.36;2980509
20150428;97.64;98.81;97.64;98.46;3736627
20150429;98.22;99.98;97.79;99.74;3902568
20150430;100;100.44;98.48;98.95;3462023
20150501;99.21;101;97.61;98.9;3584709
20150504;99.11;101.36;98.55;99.39;7312741
20150505;98.7;100.2;94.53;94.54;11761970
20150506;96.21;96.86;94.49;95.08;5163486
20150507;96.1;96.1;92.42;93.5;5197832
20150508;94.48;94.5;92.56;93.5;4922339
20150511;94.05;94.24;91.47;91.61;3952431
20150512;91.76;93.59;91.71;93.41;3468510
20150513;94.04;94.07;90.98;91.6;3548294
20150514;91.99;92.08;90.68;90.73;3582206
20150515;90.32;91.24;89.25;90.47;3267370
20150518;90.56;92.04;89.9;91.8;3017958
20150519;91.48;91.61;90.24;90.26;3588533
20150520;90.6;90.72;89.76;90.46;3734401
20150521;91.17;91.83;90.68;91.49;3957981
20150522;90.4;91.39;90.07;90.26;3055520
20150526;89.25;89.81;88.55;89.15;3920667
20150527;89.13;89.94;88.51;89;3016885
20150528;88.55;89.36;88;89.15;3790844
20150529;89.42;89.52;88.26;88.69;3948896
20150601;89.02;89.12;88.18;88.76;2886599
20150602;89.02;90.35;88.21;89.77;3581554
20150603;89.55;90.47;88.97;89.01;2158389
20150604;88.23;89.13;87.28;87.38;3774189
20150605;87;90.64;86.82;89.68;4429916
20150608;89.37;89.96;88.63;89.11;2755687
20150609;90.02;91.48;89.09;89.09;2660975
20150610;90.39;90.71;89.66;90.41;2914822
20150611;91;91.05;90.23;90.65;2300930
20150612;90.16;90.43;89.12;89.53;2464075
20150615;88.51;89.86;88.5;89.22;2795348
20150616;89.07;90.36;89.03;90.08;2286365
20150617;90.68;91.15;88.42;89.02;4998133
20150618;89.76;90.13;88.54;88.81;3602476
20150619;88.29;89.12;88.24;88.27;4298559
20150622;88.6;88.67;87.45;88.08;2845624
20150623;88.28;88.82;87.66;88.79;3613321
20150624;88.54;89.07;88.1;88.34;3785853
20150625;88.17;88.27;87.3;87.65;3797792
20150626;87.6;88.7;87.08;88.06;11406641
20150629;86.99;87.94;86.15;86.25;4022274
20150630;86.99;87.9;86.34;87.55;3941448
20150701;87.85;87.85;84.84;85.77;4644490
20150702;85.95;86.7;85.59;85.67;2699914
20150706;84.49;86.18;84.05;85.09;3513261
20150707;85.78;87.1;83.83;86.72;5118308
20150708;86.1;86.92;84;84.49;4681214
20150709;85.99;87.35;85.18;85.3;3783964
20150710;85.98;86.76;84.45;84.54;2903774
20150713;84.53;84.79;83.47;84.21;3830171
20150714;84.2;85.64;84.1;85.23;3276097
20150715;84.62;85.23;83.05;83.25;3917347
20150716;83.74;83.8;82.34;82.4;4019255
20150717;81.97;82.15;80.26;80.5;6069336
20150720;80.24;80.25;77.92;77.93;7054034
20150721;78.09;78.38;76.94;77.33;6823693
20150722;77.18;77.49;75.76;76.09;7205219
20150723;76.2;76.82;75.47;76.32;6335408
20150724;76.1;76.58;74.62;75.16;5850150
20150727;74.1;74.73;72.86;73.19;5621305
20150728;73.4;77.56;73.4;76.85;7887190
20150729;76.5;79.01;76.5;77.74;6360574
20150730;77.65;78.72;76.8;78.54;4539802
20150731;78;78.31;77;77.19;4190210
20150803;76.2;77.63;75.45;76.44;5136474
20150804;77.08;77.77;76.35;76.74;3981908
20150805;78.06;78.95;75.96;76.09;4896806
20150806;75.65;78.34;75.3;77.68;6709536
20150807;75.25;78.7;73.03;73.76;8476104
20150810;73.67;76.48;73.62;76.27;6935217
20150811;75.13;77.43;74.18;77.3;5976015
20150812;77.32;80.26;76.5;79.93;8330618
20150813;79.3;80.5;78.34;79.68;5889702
20150814;79.5;80.88;78.8;79.93;3908053
20150817;79.5;80.16;78.89;80.01;3747234
20150818;79.71;80.54;79.28;80.41;3536669
20150819;79.87;79.88;76.07;77.07;6122928
20150820;77.02;78.44;76.61;76.73;6793498
20150821;76.39;77.43;74.12;74.86;7769068
20150824;70;73.28;68.15;69.26;9518764
20150825;72.1;72.11;68.29;68.36;6720591
20150826;70.21;71.04;68.4;70.99;6763714
20150827;72.99;76.1;72.86;75.79;7160693
20150828;75.5;79.34;75.41;77.31;6962188
20150831;76.2;79.16;74.57;78.31;6863989
20150901;76.02;77.32;75.18;76.02;6376917
20150902;77.06;77.71;74.87;77.71;5356520
20150903;78.25;80.16;76.79;77.45;6228140
20150904;76.22;77.44;75.95;76.89;4700715
20150908;77.58;78.18;75.45;77.66;5137591
20150909;78.74;79.35;76.67;76.93;6445384
20150910;77.57;78.24;76.13;78.06;4814677
20150911;76.75;77.41;75.84;77.15;4571796
20150914;77.15;77.15;76.04;76.43;3704992
20150915;77.04;77.8;76.56;77.25;3650540
20150916;77.68;80.17;77.46;79.94;3996039
20150917;80.02;81.18;79.12;79.66;5499094
20150918;78.86;79.19;75.93;76.26;6047594
20150921;77.05;77.33;75.87;76.52;3258693
20150922;75.43;76.66;74.69;75.22;3433933
20150923;75.24;75.93;72.87;73.04;3891372
20150924;72.29;73.72;71.48;73.26;4443613
20150925;74.06;74.21;72.19;72.79;3894307
20150928;71.74;72.19;69.1;69.43;4581857
20150929;69.86;70.67;69.14;70.13;3773586
20150930;70.85;72.94;70.67;72.8;4809186
20151001;73.8;75.68;73;73.59;5684140
20151002;72.67;77.45;71.59;77.06;6032611
20151005;78.16;81.7;78;80.65;7429268
20151006;80.72;83.73;80.55;82.84;6777047
20151007;84.37;85.4;82.18;83.77;6959165
20151008;83.31;87.27;83.07;87.04;6795014
20151009;87.35;88.3;86.1;87.3;5802175
20151012;87.12;88;84.93;86.03;4804228
20151013;85.13;86.29;84.75;85.28;5605930
20151014;84.99;86.14;84.76;85.78;3325357
20151015;85.3;87.16;84.93;87.14;3610766
20151016;87.75;88;86.56;87.5;4128452
20151019;86.27;86.47;84.11;84.81;4256501
20151020;84.57;85.65;83.95;84.87;3553364
20151021;84.44;84.7;83.41;83.78;3007351
20151022;84.63;86.17;84.37;85.8;2901135
20151023;85.09;86.09;84.32;85.43;2674924
20151026;85.1;85.29;83.25;83.39;3496534
20151027;81.84;82.95;80.05;82.7;5147717
20151028;82.98;86.17;82.35;84.79;3830015
20151029;84.32;85.9;84.13;85.52;2984088
20151030;85.78;86.68;84.37;85.85;3161572
20151102;85.14;86.5;84.71;86.07;3597501
20151103;86.9;89.52;86.28;88.45;5513885
20151104;88.48;88.96;85.75;86.47;3908732
20151105;86.28;88.22;85.45;86.47;4033751
20151106;85.41;88.49;84.23;85.27;5272285
20151109;85.94;87.18;84.49;85.37;3849949
20151110;85.22;86.88;84.72;86.58;3909672
20151111;86.35;87.9;83.19;83.32;3545517
20151112;82.34;82.75;80.93;81.69;3436682
20151113;81.65;82.95;80.5;82.25;3111772
20151116;82.44;84.86;82;84.79;3052651
20151117;84.29;84.31;81.93;82.98;3290260
20151118;83.84;85.26;82.95;85.15;3200890
20151119;84.26;84.64;81.74;82.65;2797857
20151120;83;83.27;81.98;82.63;2980718
20151123;82.36;83.38;82.06;82.57;2718656
20151124;83.3;85.65;83.16;85.14;4421124
20151125;84.24;84.63;83.2;83.53;3037031
20151127;82.88;83.27;81.9;82.02;1446573
20151130;82.41;84.64;82.2;83.43;3833480
20151201;83.45;84.13;83.02;84.05;2584237
20151202;83.33;84.06;80.41;80.86;4543302
20151203;81.64;82.48;80.25;80.99;4674971
20151204;79.29;80.84;78.5;80.49;4754216
20151207;77.88;78.4;74.55;76.19;6354450
20151208;74.72;77.88;73.93;77.11;5336845
20151209;77.47;80.4;76.88;78.38;5377123
20151210;77.84;80.15;77.4;78.18;5033285
20151211;77.32;79.43;74.76;74.89;4961982
20151214;74.36;77.03;73.72;76.86;5854629
20151215;77.97;78.66;76.98;77.3;5700995
20151216;77.29;77.62;75.72;75.8;4961252
20151217;75.47;75.98;71.93;73.3;6109966
20151218;73.19;73.87;71.41;71.43;6633829
20151221;71.6;71.85;69.3;70.25;5078834
20151222;70.33;71.58;69.58;69.81;5234648
20151223;71.4;73.76;70.79;73.69;5352682
20151224;73.75;73.98;72.65;73.42;1792921
20151228;71.76;71.98;70.21;70.49;3998011
20151229;71.88;72.33;70.55;71.09;3168438
20151230;69.8;71.09;69.74;70.61;3354675
20151231;70.11;71.59;70;70.79;3117340
20160104;70.8;71;68.83;69.68;5136714
20160105;70.06;70.54;68.57;70.13;3665194
20160106;68.5;68.5;66.7;67.32;6626717
20160107;65.92;69.01;65.19;65.46;5297934
20160108;65.86;66.43;64.77;65.52;4990105
20160111;65.88;66.06;62.92;63.67;5356702
20160112;64.65;65.18;61.35;62.92;7124494
20160113;63.42;64.66;62.59;64.17;7745432
20160114;64.67;66.61;63.61;65.26;7134868
20160115;62.01;64.02;61.01;62.97;5870594
20160119;63.15;63.63;59.48;60.98;5476957
20160120;59.73;60.88;57.15;60.24;10621636
20160121;60.24;64.25;59.41;63.75;7404077
20160122;66.44;67.49;64.67;66.02;6827131
20160125;64.62;66.15;61.51;61.59;4969205
20160126;63;66.13;62.29;66.03;6788957
20160127;65.09;67.93;64.49;66.07;7071277
20160128;69.23;69.79;66.65;68.63;6737656
20160129;69.17;71.18;69.02;71.02;6883204
20160201;69.3;70;67.69;69.09;4489147
20160202;67.01;69.37;66;67.16;5463616
20160203;68.61;70.27;66.32;70.19;5381169
20160204;70.67;71.39;68.14;68.44;5174334
20160205;67.68;67.68;65.62;67.06;5514373
20160208;65.66;68.8;64.75;68.43;6274494
20160209;67.21;67.97;64.34;65.59;6382825
20160210;65.45;66.78;63.91;65.79;4302085
20160211;63.62;65.99;63.06;65.56;5413000
20160212;66.82;68.76;65.98;67.7;5476817
20160216;68.77;69.09;66.25;67.89;3747915
20160217;69;70.94;67.6;70.82;6288161
20160218;70.99;71.23;69.34;69.46;3668080
20160219;68.61;69.73;68.06;69.71;3575080
20160222;71.54;72.77;70.62;72.21;4684646
20160223;71.69;71.75;67.65;68.02;4418684
20160224;67.23;69.94;66.75;69.52;4151505
20160225;69.19;70.3;67.17;68.5;5356663
20160226;68;69.7;65.74;67.5;10600825
20160229;67.42;67.56;64.72;64.74;7950263
20160301;65.1;65.47;62.53;65.02;7542893
20160302;64.95;67.12;64.14;67;5243390
20160303;66.95;69.67;66.18;69.25;6644356
20160304;69.91;71.52;68.74;71.41;7930767
20160307;71.12;75.53;70.22;75.47;8446319
20160308;74.65;74.84;70.48;70.56;6598941
20160309;71.59;72.5;69.81;72.26;4693466
20160310;71.16;72.86;70.31;72.27;4558447
20160311;73.14;75.89;72.99;75.18;4281958
20160314;73.71;75.45;73.29;74.78;3188435
20160315;73.82;74.37;71.9;73.61;3910475
20160316;74.37;75.27;72.69;75.04;4881804
20160317;75.66;77.45;75.18;76.5;4675149
20160318;77.5;77.7;74.63;75.63;7455577
20160321;75.02;76.32;74.59;75.96;2899578
20160322;75.39;77.25;75.38;75.9;2844325
20160323;75.45;76.54;73.84;74.34;3840738
20160324;72.42;74.91;72.32;74.3;3621436
20160328;74.3;74.76;73.52;74.53;2628650
20160329;73.17;75.64;73.14;75.45;3242950
20160330;76.44;76.5;73.59;73.66;4136216
20160331;73.48;74.42;72.37;72.58;5664728
20160401;70.85;72.47;70.41;72.04;5143426
20160404;72.48;72.63;70.11;70.31;3452993
20160405;69.89;71.36;69.66;70.54;3467458
20160406;70.68;71.71;69.76;71.22;4159188
20160407;70.79;72.08;70.39;71.45;3017643
20160408;73.37;73.5;72.44;73.47;3215857
20160411;73.88;74.78;73.7;74.01;3457517
20160412;74.46;77.83;73.54;77.51;5527980
20160413;77.61;78.18;76.32;77.78;4629055
20160414;78.03;78.63;77;77.81;2666691
20160415;77.42;77.42;75.07;75.71;4868804
20160418;74.04;77.68;73.57;77.44;3586372
20160419;78.52;80.18;77.7;79.13;3829927
20160420;78.13;80.06;76.64;79.37;4066163
20160421;79.38;80.29;78.71;79.16;3336607
20160422;79.67;81.78;79.5;80.92;3157284
20160425;80.39;80.52;79.04;79.76;2828067
20160426;80.52;82.86;79.97;82.78;3654744
20160427;83.69;85.43;83.04;84.51;3795123
20160428;83.85;84.75;81.6;81.89;3265960
20160429;82.71;83.24;81.03;82.62;4570581
20160502;82.33;83.06;80.68;82.78;4300747
20160503;81.44;82.23;80.05;80.63;3808622
20160504;80.61;82;78.81;79.34;3757590
20160505;80.44;82.75;80.15;81.26;5206822
20160506;78.83;81.65;78.08;78.68;5070763
20160509;78.21;78.83;77.03;78.64;3002665
20160510;78.77;79.85;78.71;79.73;4089674
20160511;79.38;81.21;78.22;80.32;3191993
20160512;81.39;81.85;79.55;80.5;2278200
20160513;80.21;80.97;78.6;78.65;3219066
20160516;79.64;81.41;79.64;80.69;2992771
20160517;80.8;82.48;80.39;81.57;3952342
20160518;81.36;82.15;79.88;80.41;2492768
20160519;79.15;80.19;77.66;80.08;3798518
20160520;80.59;81.31;79.54;80.92;3322765
20160523;79.8;81.87;79.73;81.27;3215278
20160524;81.79;83.08;80.65;82.49;3312882
20160525;82.5;83.38;82.29;83.08;2895368
20160526;83.55;83.94;82.21;82.3;2367255
20160527;81.94;82.26;80.77;81.57;2100605
20160531;82.03;82.48;81.08;81.36;3009226
20160601;80.65;81.31;80;80.75;3337060
20160602;79.96;80.58;79.2;80.49;2069761
20160603;80.24;80.8;79.11;79.71;2134529
20160606;80.61;81.42;79.97;81.27;2037527
20160607;81.99;85.63;81.91;85.42;4369451
20160608;86.6;86.87;85.14;85.36;3796762
20160609;84.17;85.44;84;84.58;3588127
20160610;83.32;84.34;81.33;81.56;2983566
20160613;80.99;83.1;80.51;81.39;2283115
20160614;81.22;83.05;81.07;82.98;2335718
20160615;82.73;83.54;81.5;82.44;2150814
20160616;81.25;81.35;79.33;80.18;3139796
20160617;80.95;81.55;80.34;80.89;3280766
20160620;82.33;83.39;81.81;83.19;3214989
20160621;82.99;85.22;82.83;84.91;3539802
20160622;84.9;85.09;83.43;83.6;2415622
20160623;84.76;84.97;83.97;84.5;2413209
20160624;81.58;82.88;80.81;81.06;4942171
20160627;80;80.8;78.11;78.59;4272144
20160628;80.65;81.77;79.85;81.75;3105723
20160629;82.8;84.01;82.41;83.44;2870274
20160630;83.44;83.96;82.64;83.42;3364026
20160701;83.78;85.73;83.37;84.78;2675525
20160705;83.12;84.03;81.67;82.76;2704752
20160706;82.03;83.11;81.86;82.76;2207321
20160707;83.83;83.86;81.12;81.61;2145773
20160708;82.84;83.07;81.57;82.54;1980107
20160711;82.94;83.89;82.6;82.9;1689166
20160712;84.55;85.96;84.14;85.14;2860734
20160713;84.59;85.07;82.62;83.84;2811984
20160714;84.84;84.93;83.88;84.63;2018117
20160715;84.51;84.9;83.64;84.1;2473836
20160718;83.92;84.31;82.74;83.25;1864795
20160719;82.87;83.15;81.86;82.04;2173752
20160720;81.53;82.86;80.92;82.11;2156700
20160721;82.15;83.46;81.2;81.49;1859092
20160722;82.05;82.2;80.19;80.98;2620092
20160725;80.38;80.56;78.19;78.75;4280286
20160726;78.47;80.45;78.04;80.45;2547963
20160727;80.76;81.95;79.64;79.78;3450208
20160728;79.74;80.71;79.25;79.9;2537360
20160729;79;81.89;78.86;81.7;2886943
20160801;81.04;81.13;78.26;78.7;3591753
20160802;79.37;80.36;78.52;79.89;3039628
20160803;80;82.42;79.67;82.37;3036515
20160804;82.03;84.3;81.6;84.24;4243041
20160805;87.23;90.77;86.75;90.16;8928252
20160808;90.97;92;90.47;90.66;4506052
20160809;91.29;91.39;89.9;90.38;3064217
20160810;90.87;90.87;89.2;89.42;2664129
20160811;90.07;91.15;89.08;90.28;3445361
20160812;90.65;91.42;90;91.2;1912569
20160815;91.51;91.97;90.54;90.55;2794091
20160816;90.19;90.8;88.84;90.26;2463394
20160817;89.81;90.66;89.3;90.22;3160436
20160818;90.82;92.1;90.29;91.73;4122216
20160819;91.17;91.94;90.66;91.76;2338553
20160822;90.83;91.84;90.27;91.17;2276099
20160823;90.73;91.85;90.71;91.21;2986408
20160824;90.77;91.4;90.56;90.73;2329222
20160825;90.7;90.85;90;90.25;1929886
20160826;90.73;91.51;89.92;90.18;1641064
20160829;89.98;91.33;89.61;91.14;2226139
20160830;91.27;91.69;89.64;90.07;1618365
20160831;89.76;89.9;88.02;88.49;2709139
20160901;88.31;88.64;87.44;88.55;2420698
20160902;89.27;89.5;88.69;88.91;1938356
20160906;90.25;95.2;90.06;94.83;7421615
20160907;94.78;95.16;94.04;94.32;4271513
20160908;95.18;95.93;94.16;95.43;3697251
20160909;94.36;94.87;92.62;92.65;3013286
20160912;92.05;93.53;91.35;92.98;2498803
20160913;91.61;92.13;89.53;90.4;3985874
20160914;89.88;90.82;88.17;88.45;3673725
20160915;88.85;92.39;88.49;90.95;3946570
20160916;89.54;91.46;89.27;90.97;4559711
20160919;91.66;91.87;90.02;90.05;3739977
20160920;90.16;91.85;90.04;90.4;3050139
20160921;91.56;93.79;91.1;93.52;3189143
20160922;94.61;95;92.43;92.61;3047683
20160923;92.25;92.36;89.4;89.75;3679821
20160926;90.22;90.63;89.01;89.26;2131450
20160927;88.15;89;87.18;88.56;2939020
20160928;89.46;94.58;88.57;93.96;4533827
20160929;94.28;95.94;93.14;95.05;4486465
20160930;95.55;97.2;94.69;96.71;4006452
20161003;96.27;96.71;95.06;96.11;2318565
20161004;96.32;96.37;94.51;95.14;1724720
20161005;96.37;98.32;96.09;97.38;3284513
20161006;97.55;98.06;96.39;97.14;1790213
20161007;96.88;97.33;96.05;96.44;1742934
20161010;97.28;98.1;97.13;97.29;1963552
20161011;96.75;97.07;95.72;96.05;2099930
20161012;95.88;96.76;95.15;96.3;2415752
20161013;95.43;95.93;93.99;95.5;2252434
20161014;96.27;96.27;93.91;94.48;2526786
20161017;94.46;94.95;93.05;93.78;2100090
20161018;94.96;95.16;92.94;93.13;2735372
20161019;94.26;96.18;94;95.06;3163808
20161020;93.97;95.5;93.77;94.91;2472183
20161021;94.19;95.02;93.64;93.88;2729648
20161024;93.98;94.67;92.28;93.62;2568962
20161025;93.48;94.19;92.57;92.67;1429135
20161026;91.85;93.1;90.38;92.14;3286408
20161027;92.51;92.89;91.3;91.74;3581326
20161028;91.65;94.09;90.68;90.8;3269761
20161031;90.66;91.23;90.18;90.42;2406920
20161101;91.32;92.22;89.9;91.16;2496014
20161102;89.91;91.79;88.94;90.94;3302628
20161103;90.88;92.88;90.59;92.08;4157869
20161104;94.87;96;91.51;91.8;6775080
20161107;93.6;93.6;92.21;93.43;2988167
20161108;92.9;94.1;92.57;93.36;2382312
20161109;93.35;94.67;92.52;93.43;4685943
20161110;92.64;93.7;92.06;92.63;2983016
20161111;92.07;92.54;90.12;91.41;2340304
20161114;91.19;92.8;90.09;92.68;2467001
20161115;94.03;94.99;93.05;94.57;8288424
20161116;94.51;96.02;94.05;95.22;4103429
20161117;96.1;96.58;92.04;92.34;5877707
20161118;92.75;94.28;92.38;93.15;2755401
20161121;95;97;94.86;95.67;4642425
20161122;95.79;96.2;93.42;95.27;3867772
20161123;94.79;97.7;94.64;97;2680677
20161125;96.39;96.81;95.19;95.98;1518348
20161128;96.64;96.84;93.27;93.47;3031187
20161129;91.6;93.38;90;92.44;4010441
20161130;97.31;103.07;97.09;102.52;10120960
20161201;105.71;107.47;103.85;104.75;6505337
20161202;104.81;105.47;103.39;103.74;4078342
20161205;104.88;106.81;104.32;104.46;5883879
20161206;103.52;105.3;102.56;103.97;3539660
20161207;103.92;104.97;102.69;103.53;3777737
20161208;104.03;105.25;102.36;104.93;6189119
20161209;105.59;106.99;105.35;106.45;4049614
20161212;109.1;109.37;105.19;105.83;5758468
20161213;107;109.13;105.8;108.01;3912633
20161214;106.69;107.47;104.08;104.21;4010252
20161215;103.03;105.05;102.54;103.92;4646788
20161216;104.09;104.59;102.79;104;8906260
20161219;104.27;104.4;103.13;103.48;2238892
20161220;104.2;104.34;102.71;103.16;2383138
20161221;103.75;103.86;102.33;102.55;2365152
20161222;102.67;103.33;101.87;103.13;2722379
20161223;102.7;103.04;101.62;102.03;1706423
20161227;102.82;103.12;102.32;102.54;1410823
20161228;102.49;102.83;101.35;101.65;1896105
20161229;101.6;101.95;100.54;101.28;1517650
20161230;101.15;102.18;100.73;101.1;2178158
20170103;102.63;104.63;101.83;103.54;4151205
20170104;104.25;104.47;102.97;103.62;2417921
20170105;103.63;104.85;103.42;104.18;3084811
20170106;104.61;105.71;103.71;105.21;2418326
20170109;104.32;104.58;102.82;103.02;3382593
20170110;103.23;104.4;102.87;103.4;2913760
20170111;103.56;105.04;102.73;104.92;3542882
20170112;105.51;106.51;104.84;105.37;4671749
20170113;104.84;106.08;104.27;105.39;2580629
20170117;105.95;106.76;105.45;105.48;3881138
20170118;105.34;105.71;104.73;105.4;2527915
20170119;105.5;106.21;104.46;105.19;2425809
20170120;106.23;106.79;105.3;105.47;2488136
20170123;104.72;105.1;103.34;103.46;3045469
20170124;104.49;104.62;102.91;103.68;2680540
20170125;103.63;104.39;103.24;103.9;2798101
20170126;104.1;105.26;103.9;104.39;2772648
20170127;104.16;104.16;102.78;102.9;2343629
20170130;102.19;102.76;99.57;101.2;2975581
20170131;101.35;101.62;100.1;101.58;2447528
20170201;102.19;102.63;100.05;101;3028543
20170202;101.14;101.48;98.94;99.71;5064381
20170203;99.68;102.18;99.21;100.94;3520889
20170206;101;101.05;99.43;99.7;1802425
20170207;99.25;99.5;95.27;97.19;5157970
20170208;96.6;98.49;95.28;98.14;3445423
20170209;99.1;100.29;98.45;99.81;2927008
20170210;101.23;102.03;100.57;101.44;3088973
20170213;100.91;101.38;100.14;100.35;1945114
20170214;100.33;101.48;99.02;101.23;3862460
20170215;100.91;101.47;100.35;100.75;2093995
20170216;101.06;101.48;99.84;100.17;3154050
20170217;99.91;100.02;98.43;99.03;3023215
20170221;100.41;100.85;99.43;99.47;2737205
20170222;98.76;99.2;97.46;97.53;2596450
20170223;99.19;99.19;96.55;97.57;3212212
20170224;96.52;97.5;95.65;96.3;3590310
20170227;96.78;98.23;96.3;97.91;5156920
20170228;99.5;99.55;95.29;96.99;6369265
20170301;98.25;100.42;98.01;100.05;3775915
20170302;99.18;99.71;98.24;98.47;3049687
20170303;98.5;99.31;98.12;98.57;2075353
20170306;98.62;100.38;97.8;100.07;3106089
20170307;100.4;100.54;99.4;99.53;3381790
20170308;98.81;99.36;94.49;94.83;4829553
20170309;93.77;96.02;93.06;95.7;4991367
20170310;96.5;96.5;94.01;94.79;3796460
20170313;94.49;95.35;93.52;94.95;4695357
20170314;93.93;94.99;92.91;94.59;5091792
20170315;95.54;97.39;94.68;97.06;4184439
20170316;97.16;97.25;95.74;95.83;3182442
20170317;96.54;96.97;95.65;96.43;6978641
20170320;95.75;96.55;95.2;96.22;2208436
20170321;96.49;96.59;94.26;94.53;2840747
20170322;94.34;95.33;93.93;94.65;2040694
20170323;94.48;95.44;93.92;94.81;2369615
20170324;94.94;95.25;94.36;94.86;2858354
20170327;93.35;93.99;93.03;93.38;2757071
20170328;93.5;95.64;93.45;95.29;3341044
20170329;95.18;97.56;94.57;97;3480896
20170330;98.19;100.16;97.17;97.17;7514657
20170331;97.18;98.5;96.66;97.55;4000964
20170403;97.5;97.81;95.98;96.96;2281963
20170404;97.37;98.31;96.01;98.25;2232138
20170405;99.4;100.53;97.22;97.58;3829133
20170406;97.97;98.81;97.56;98.05;1977903
20170407;98.23;98.48;97.04;97.36;2866685
20170410;98.17;99.43;98.06;98.57;2902612
20170411;98.09;98.61;96.91;97.88;1907926
20170412;97.82;98.88;97.18;97.49;2295069
20170413;97.25;97.72;95.33;95.64;3235143
20170417;95.66;96.13;95.2;95.74;2288772
20170418;95.11;95.97;94.3;94.83;2005741
20170419;94.93;95.42;92.93;93.29;3109057
20170420;93.77;94.1;93.19;93.3;2737304
20170421;93;94.25;92.89;93.58;2409298
20170424;94.46;94.46;93.32;93.74;2182240
20170425;93.8;95.43;93.47;95.27;2273945
20170426;94.42;96.49;94.21;94.31;2131956
20170427;93.57;93.7;91.16;93;3876283
20170428;93.97;93.97;92.44;92.5;1625309
20170501;92.53;92.71;91.75;92.03;2680096
20170502;92.24;92.44;91.05;91.87;3351349
20170503;91.53;92.75;91.09;91.76;3512229
20170504;91.04;91.24;88.2;88.6;5457939
20170505;89.03;91.06;88.87;90.88;4696413
20170508;90.39;92.14;90.17;91.69;3718298
20170509;92.36;92.44;90.6;91.64;3591133
20170510;93.01;95.77;92.57;94.54;5239157
20170511;94.82;94.92;93.98;94.28;2580772
20170512;94.12;95.01;93.8;94.7;3415668
20170515;96.32;96.65;94.12;94.73;6294017
20170516;94.87;95.06;93.52;93.83;2682657
20170517;93.28;94.3;92.83;92.95;2406905
20170518;92.23;93.02;91.67;91.69;3795844
20170519;92.38;94.39;92.07;93.81;3711885
20170522;94.13;94.76;92.79;93.11;2004620
20170523;93.12;93.3;91.97;92.53;2255369
20170524;92.37;93.39;92.31;92.67;2898116
20170525;92.28;93.62;90.44;91.02;2768745
20170526;91.29;91.41;90.12;91.22;2001462
20170530;90.47;90.79;89.43;89.62;3163050
20170531;88.99;90.61;88.36;90.31;3938846
20170601;90.64;91.38;89.73;90.4;2829569
20170602;90.04;90.58;88.94;89.68;2680187
20170605;89.12;89.63;88.52;89.2;2372985
20170606;89.1;91.06;88.77;90.83;3219502
20170607;90.22;90.94;87.41;88.15;4531393
20170608;87.63;88.8;87.62;88.11;3498839
20170609;88.33;90.81;88.04;90.08;4507916
20170612;91.26;91.98;89.51;89.88;3812460
20170613;90.05;90.7;89.51;90.56;2573078
20170614;90.03;90.05;87.84;88.93;4055210
20170615;88.86;89.15;86.57;87.04;4362030
20170616;87.57;88.59;87.07;88.52;4767003
20170619;88.37;89.01;87.96;88.07;2495363
20170620;86.79;88.29;85.88;87.85;3772091
20170621;88.1;89.17;86.64;87.12;4613500
20170622;87.34;89.03;86.63;87.69;3356558
20170623;87.61;88.23;87.21;87.79;3733870
20170626;88.04;88.19;86.82;87.39;2548073
20170627;88.19;88.83;87.68;88;3909206
20170628;88.18;89.54;87.49;89.02;4508240
20170629;89.47;90.91;89.3;90;4078999
20170630;90.34;91.22;89.25;90.52;4164149
20170703;91;93.16;90.52;92.37;2399997
20170705;91.82;92.19;89.96;90.3;2720176
20170706;90.53;90.84;88.41;88.63;3290586
20170707;88.07;88.6;87.04;88.44;3810270
20170710;88.13;89.78;88;89.62;2064842
20170711;89.62;90.99;88.92;90.63;2516977
20170712;91.46;92.3;90.41;90.57;3166655
20170713;90.37;91.92;90.37;91.81;2472927
20170714;91.98;92.36;91.59;91.87;1773422
20170717;91.31;92.13;91.31;91.9;4129138
20170718;92.25;92.45;91.25;91.7;2198601
20170719;91.56;94.55;91.56;94.31;3937546
20170720;95;95.74;93.57;93.66;4078175
20170721;93.39;93.8;92.38;92.91;2665721
20170724;93.02;94.68;92.9;93.31;2588939
20170725;94.78;95.65;94.44;94.87;2811156
20170726;95.66;96.1;94.65;94.75;2862098
20170727;94.62;95.99;94.3;95.98;2615744
20170728;96.01;96.9;95.03;95.42;2977076
20170731;95.32;95.9;94.77;95.14;2996674
20170801;94.91;95.58;94.05;94.46;3801955
20170802;92.62;93.28;89.85;92.32;5358737
20170803;92.39;92.5;87.76;88.9;6297439
20170804;88.82;91.24;88.56;90.45;3792200
20170807;89.89;90.23;88.85;89.67;3886628
20170808;89.81;92.35;89.71;91.15;3829713
20170809;91.52;92.35;90.27;90.35;3289080
20170810;90.63;90.96;88.89;89.12;3377372
20170811;89.15;89.55;87.94;88.53;2874157
20170814;88.93;89.04;87.73;87.99;2482221
20170815;87.75;87.91;86.25;87.02;4457936
20170816;87.23;87.23;84.84;84.98;3478032
20170817;84.78;85.03;83.37;83.38;3438130
20170818;83.35;84.54;83.29;84.09;2751653
20170821;83.81;84.32;83.41;83.69;2515486
20170822;83.91;84.53;83.85;84.24;1946655
20170823;84.16;85.72;83.96;85.11;2322742
20170824;84.8;85.14;84.33;84.62;2007762
20170825;85.01;85.22;84.46;84.51;2211256
20170828;84.35;84.42;82.25;83.4;2377458
20170829;82.62;83.24;81.99;83.15;2322118
20170830;82.92;83.98;82.32;83.67;2245659
20170831;84;85.18;83.61;84.99;4803859
20170901;85;85.86;84.59;85.65;2358644
20170905;85.92;86.68;85.26;85.87;2657753
20170906;86.72;87.97;86.46;87.85;2600331
20170907;87.75;88.74;87.4;88.6;2788606
20170908;87.87;88.07;86.08;86.78;2687176
20170911;87.11;87.99;86.48;87.93;2865342
20170912;87.85;88.75;87.43;88.47;2922918
20170913;89.32;91.11;89.07;91.1;3158258
20170914;91.5;92.95;91.17;91.78;3428369
20170915;92.43;93.29;91.86;93.22;4057790
20170918;92.77;93.38;92.38;93.05;2388436
20170919;93.08;93.64;92.71;93.13;2074609
20170920;93.58;94.28;92.82;94.18;3774250
20170921;93.66;94.44;93.14;93.89;2678660
20170922;93.77;94.65;93.45;94.55;2290433
20170925;95;96.8;94.74;96.29;3143428
20170926;95.99;97.5;95.47;96.87;2951146
20170927;96.9;97.51;96.28;97.32;2123021
20170928;97.45;98.37;96.81;96.82;2983045
20170929;96.73;97.45;96.05;96.74;2010864
20171002;95.52;97.18;94.87;97.18;2115207
20171003;96.98;97.71;96.48;96.5;2134464
20171004;96.65;96.98;95.98;96.33;1507994
20171005;96.5;97.07;96.15;96.55;2097643
20171006;95.79;96.34;95.46;96.19;1587332
20171009;96.53;97.02;96.11;96.5;1880931
20171010;97.1;97.83;96.7;96.78;2201233
20171011;96.77;97.12;96.04;96.93;2156493
20171012;96.08;96.89;95.72;96.65;2173722
20171013;97.5;97.63;96.3;96.62;1953638
20171016;97.13;97.48;96.74;97.21;2075186
20171017;97.25;97.77;96.56;97.45;1695319
20171018;97.54;98.46;96.57;96.66;2040447
20171019;95.69;96.69;95.36;95.76;1875107
20171020;95.78;97.04;95.42;96.84;2194495
20171023;97.07;97.49;96.67;96.97;2395754
20171024;97.7;97.97;96.23;96.48;2190394
20171025;96.32;96.87;95.67;96.15;1958994
20171026;96.45;97.19;95.74;96.92;1980801
20171027;96.21;98.56;95.84;98.47;2911191
20171030;98.66;99.69;98.28;99.53;3505439
20171031;99.25;100.41;99.06;99.87;3272527
20171101;100.79;102.47;96.71;102.29;3953417
20171102;101.37;102.99;101.37;102.95;2970916
20171103;103.8;105.07;103.31;104.5;4080161
20171106;105.15;107.19;105.06;106.96;4709626
20171107;107.35;107.95;105.55;106.09;4021318
20171108;105.51;105.79;103.8;104.33;3426189
20171109;103.83;105.44;103.56;104.78;3053056
20171110;104.53;105.12;103.21;104.58;3383230
20171113;104.2;105;103.74;104.46;1822941
20171114;103.85;104.06;102.36;102.47;2428409
20171115;101.18;102.33;100.08;101.36;3357700
20171116;101.29;102.16;100.81;101.43;2027498
20171117;101.76;102.21;101.11;101.64;2596845
20171120;101.38;102;100.7;101.44;1659713
20171121;102.3;102.62;101.34;101.66;4058416
20171122;102.41;102.82;101.54;101.59;2654829
20171124;102.09;102.55;101.38;101.66;913550
20171127;101.57;101.79;99.22;99.82;2947797
20171128;99.75;100.18;99.11;99.84;2037194
20171129;99.56;100.53;99.25;100.5;2721558
20171130;101;102.73;101;102.32;4183723
20171201;103.32;104.42;101.66;102.91;3446054
20171204;102.69;103.03;100.99;101.05;2423456
20171205;100.69;101.77;100.52;100.9;2045989
20171206;100.43;100.45;98.49;98.86;2768449
20171207;98.89;99.83;98.51;99.72;1687645
20171208;100.28;100.74;99.75;100.39;1512439
20171211;100.49;102.34;100.4;101.21;1946819
20171212;101.37;101.42;99.44;100.28;2128157
20171213;100.46;100.72;99.71;99.94;1426884
20171214;99.76;100.83;99.55;99.64;2425027
20171215;100.54;100.64;98.47;98.55;4632953
20171218;98.7;100.17;98.68;99.91;2670341
20171219;100.34;101.8;99.68;101.43;2374437
20171220;102.05;103.82;101.21;103.54;2651764
20171221;103.73;106.75;103.24;106.35;3330281
20171222;106.7;107.88;105.88;107.11;2028669
20171226;107.24;109.66;107;109.41;2071502
20171227;109.06;109.3;107.72;108.36;1801972
20171228;108.5;108.63;107.86;108.45;1250552
20171229;109.11;109.11;107.88;107.91;1778184
20180102;108.67;109.39;108.22;109.3;1899830
20180103;110.14;111.83;109.82;110.93;3068424
20180104;110.39;111.21;109.75;110.95;2124966
20180105;110.66;112.3;110.12;112.17;2221207
20180108;112.44;113.22;111.65;112.71;1934379
20180109;112.93;113.1;111.54;111.71;1944057
20180110;111.94;113.75;111.86;112.01;4751455
20180111;112.79;115.72;112.46;115.14;3828104
20180112;114.95;116.47;114.79;115.7;2025312
20180116;115.82;116.44;113.08;113.39;4835628
20180117;113.71;114.35;112.14;113.53;3324297
20180118;113.36;115.16;112.82;114.24;4564600
20180119;113.95;114.76;113.47;114.37;2920580
20180122;114.53;116.86;114.41;116.82;2233174
20180123;117.05;118.6;116.88;117.84;3150700
20180124;117.99;118.9;117.2;118.47;2463897
20180125;118.92;119;117.03;117.45;2061289
20180126;117.06;118.06;116.8;117.76;2170913
20180129;117.12;118.13;116.42;116.58;1584903
20180130;115.98;115.98;113.9;115.17;3589051
20180131;115.32;115.73;114.43;115;2409788
20180201;115.28;116.57;114.58;116.52;2507634
20180202;115.01;115.19;112.41;112.83;2549409
20180205;111.7;113.88;109;109.56;3175882
20180206;107.76;110.9;106.09;108.27;4635477
20180207;108.42;109.71;105.76;105.78;4666029
20180208;106.02;106.5;100.98;101.04;4675563
20180209;101.89;102.6;96.54;100.07;5335724
20180212;101.54;104.03;101.33;103.14;3551493
20180213;102.49;103.24;101.61;102.47;1735273
20180214;101.58;107.06;101.5;106.76;4089159
20180215;106.6;108.06;105.01;107.69;3495524
20180216;107.14;108.74;106.6;107.64;2973536
20180220;107.78;109.03;106.15;107.96;3381622
20180221;107.65;108.74;105.78;105.81;4119303
20180222;106.7;109.11;105.94;107.09;3165934
20180223;107.73;108.88;107.33;108.83;2063917
20180226;109.56;110.16;108.57;109.49;4474264
20180227;109.28;109.53;106.74;106.94;3581296
20180228;101.63;106.4;101.31;101.42;7738731
20180301;101.79;102.11;99.84;101.18;4604948
20180302;100.54;102.21;99.4;101.45;4040044
20180305;100.91;102.76;100.4;101.81;3129484
20180306;102.71;102.94;100.74;101.01;3421320
20180307;99.98;101.1;99.33;100.87;3331365
20180308;101.53;101.6;99.66;100.59;2525902
20180309;101.58;102.9;101.28;102.8;2910164
20180312;102.5;102.82;100.49;100.65;5209091
20180313;101.37;101.77;99.68;100.05;3210405
20180314;100.8;100.9;99.64;99.89;2189310
20180315;100.39;100.72;98.18;98.65;3843021
20180316;98.87;100.86;98.55;100.45;4950799
20180319;99.88;100.4;97.44;98.47;2605066
20180320;99.35;101.67;99.24;101.33;4555069
20180321;101.72;105.83;101.64;104.78;5288876
20180322;103.52;105.08;103.16;104.29;6672783
20180323;104.75;106.73;104.7;105.86;6576370
20180326;106.87;107.65;105.72;107.57;4818051
20180327;107.46;107.91;105.49;106.33;5199905
20180328;105.8;107.2;103.26;103.82;5512392
20180329;104.65;105.86;104.17;105.27;3392992
20180402;104.94;105.14;100.24;102.93;3757666
20180403;103.48;105.31;101.79;105.07;3477069
20180404;103.55;104.56;103.05;104.17;4241912
20180405;104.6;105.38;103.78;104.38;3842533
20180406;104.07;104.07;98.8;101.93;6473868
20180409;102.48;105.32;101.83;103.38;4634332
20180410;105.09;109.08;105;107.66;5453564
20180411;107.43;110.14;106.94;109.4;3466547
20180412;109.47;110.84;108.21;109.98;4378355
20180413;110.45;111.25;109.62;111.02;3338156
20180416;111.65;111.69;110.7;111.02;2745043
20180417;111.16;111.86;110.36;111.15;3720093
20180418;112.11;114.18;111.6;112.85;5109452
20180419;113.41;114.71;112.48;114.04;4963223
20180420;113.53;114.57;112.66;113.97;3112447
20180423;113.65;114.96;112.81;114.84;2146925
20180424;115.32;116.43;113.37;114.59;3632322
20180425;113.93;115.84;113.07;115.4;3506890
20180426;116.41;117.8;115.87;117.62;3439920
20180427;116.75;117.81;116.13;116.79;1822347
20180430;116.59;119.71;116.33;118.17;3315547
20180501;117.66;117.95;116.18;117.56;2364905
20180502;117.54;118.59;116.12;116.65;4779500
20180503;115.9;116.13;114.1;116.01;4269510
20180504;115;115.98;111.48;114.66;5724954
20180507;115.81;117.12;113.2;113.89;5991347
20180508;113.66;115.59;112.19;115.29;3886225
20180509;117.16;118.81;115.9;117.79;6104651
20180510;118.75;119.46;118.45;118.95;4093137
20180511;119.02;120;117.01;117.41;2951245
20180514;118.11;119.6;118.09;118.68;2645068
20180515;118.48;120.41;118.35;120.23;3191202
20180516;119.8;121.87;119.58;121.5;2900150
20180517;122;126.45;122;126.15;5721363
20180518;126.28;126.48;124.28;125.79;4064392
20180521;126.88;128.03;126;127.45;2573279
20180522;127.3;127.96;123.08;123.76;2397243
20180523;123.24;124.22;121.68;122.98;4382934
20180524;121.25;121.7;119.67;119.98;3176181
20180525;117.44;117.94;115.31;117.76;3935591
