20100104;29.65;30.32;29.5;30.3;1206664
20100105;30.2;30.57;30.2;30.32;1129261
20100106;30.21;31;30.21;30.8;1514305
20100107;30.68;30.95;30.45;30.94;1219794
20100108;30.86;31;30.64;30.88;1348165
20100111;30.94;31;30.65;30.84;994378
20100112;30.51;30.66;30.08;30.42;1114676
20100113;30.59;30.76;30.21;30.74;859155
20100114;31.41;31.84;31.22;31.4;2242618
20100115;31.37;31.49;30.83;31.03;1502942
20100119;31.11;32.13;31.01;32.12;1666496
20100120;31.93;32.06;31.14;31.57;2117554
20100121;30.63;31.24;29.5;29.55;5474538
20100122;29.65;30.47;29.46;29.96;2977460
20100125;30.38;30.72;30.27;30.54;1784144
20100126;30.35;30.65;29.93;29.99;1323794
20100127;29.91;29.91;29.2;29.76;1630887
20100128;29.91;29.91;28.89;29.51;1497108
20100129;29.68;30.08;29.32;29.34;2003313
20100201;29.64;29.77;29.44;29.76;1367095
20100202;29.73;30.25;29.45;29.97;1084157
20100203;29.8;30.18;29.43;29.61;1481775
20100204;29.35;29.48;28.78;28.87;1446512
20100205;28.82;29.25;28.48;29.17;2170452
20100208;29.18;29.43;28.71;28.84;1536929
20100209;29.19;29.77;28.97;29.58;1532146
20100210;29.55;30.03;29.18;29.88;1790376
20100211;29.79;30.2;29.52;30.12;1437285
20100212;29.72;30.37;29.54;30.18;1475609
20100216;30.5;30.71;30.26;30.71;956430
20100217;30.65;30.98;30.54;30.91;1423763
20100218;30.88;31.13;30.73;31.06;996022
20100219;30.89;31.44;30.75;31.24;1006619
20100222;31.27;31.36;30.86;31.04;843302
20100223;30.95;31.03;30.53;30.73;989260
20100224;30.86;31.24;30.66;31.05;1188342
20100225;30.57;30.63;30.27;30.53;1883724
20100226;30.5;30.88;30.43;30.77;1012828
20100301;30.85;31.22;30.63;31.19;1014742
20100302;31.33;31.44;31.06;31.3;1241478
20100303;31.39;31.89;31.28;31.47;1223914
20100304;31.4;31.7;31.25;31.46;1156408
20100305;31.7;31.75;31.56;31.65;1154557
20100308;31.72;31.87;31.59;31.78;933962
20100309;31.64;31.78;31.35;31.47;792905
20100310;31.49;32;31.16;31.85;1357493
20100311;31.67;31.67;31.38;31.65;956723
20100312;31.93;32.33;31.82;32.08;1252628
20100315;32.17;32.32;32.02;32.25;862802
20100316;32.28;32.39;32.04;32.32;876882
20100317;32.3;33.04;32.26;32.95;1205691
20100318;32.87;32.87;32.25;32.37;1470798
20100319;32.46;32.69;32.34;32.47;1564940
20100322;32.2;32.8;32.05;32.74;989264
20100323;32.79;33.05;32.56;33.03;601893
20100324;32.81;32.96;32.5;32.72;904310
20100325;32.91;33.03;32.33;32.35;1053218
20100326;32.47;33.18;32.43;33.04;1333365
20100329;33.15;33.32;32.74;32.88;903947
20100330;32.95;33.2;32.65;33.03;597265
20100331;32.91;33.08;32.62;32.7;1139592
20100401;32.99;33.27;32.99;33.25;746688
20100405;33.32;33.56;33.09;33.46;678790
20100406;33.44;33.93;33.42;33.8;1053192
20100407;33.63;34.19;33.6;33.73;1254153
20100408;33.62;34;33.44;33.97;1487198
20100409;34.03;34.34;33.92;34.34;1494143
20100412;34.4;34.52;34.28;34.45;1352509
20100413;34.42;34.74;34.1;34.67;1079090
20100414;34.67;34.78;34.37;34.76;1822246
20100415;34.88;35;34.11;34.87;2047609
20100416;34.88;35.12;34.32;34.58;1717257
20100419;34.56;35.15;34.41;35.1;1645956
20100420;35.19;35.39;34.93;35.21;1151076
20100421;35.04;35.34;34.83;35.25;964170
20100422;35.01;35.14;34.68;35.13;1831855
20100423;35.12;35.64;34.88;35.64;1357483
20100426;35.63;35.9;35.35;35.36;958815
20100427;35.41;35.49;34.45;34.48;1495576
20100428;34.66;35.05;34.42;34.96;1285828
20100429;35.24;35.66;35.03;35.62;1294872
20100430;35.72;36.12;35.18;35.19;1617000
20100503;35.41;35.69;35.2;35.64;1456323
20100504;35.21;35.39;33.92;34.24;2017379
20100505;33.97;34.11;33.46;33.74;2213975
20100506;33.32;33.68;30.45;32.38;2422155
20100507;32.33;33;31.68;31.9;2307804
20100510;33.41;33.62;32.88;33.55;1532080
20100511;33.13;33.61;32.95;33.22;1424298
20100512;33.41;33.84;33.19;33.82;894176
20100513;33.66;33.98;33.32;33.39;895364
20100514;33.05;33.15;32.27;32.55;985436
20100517;32.7;33.45;32.41;33.06;2162237
20100518;33.33;34.03;32.8;32.82;1978077
20100519;32.73;32.73;31.65;32.18;2591232
20100520;31.58;31.6;30.78;30.78;3128207
20100521;30.13;31.46;30.06;31.35;2627983
20100524;31.23;31.27;30.76;30.77;2180961
20100525;29.78;31.12;29.51;31.11;1946435
20100526;31.42;31.42;30.73;30.93;3220375
20100527;31.63;32.55;31.36;32.55;1895243
20100528;32.45;32.53;31.95;32.04;2078202
20100601;31.68;32.1;31.27;31.27;1544017
20100602;31.44;32.38;31.41;32.37;1695003
20100603;32.4;32.58;31.73;31.98;1738473
20100604;31.1;31.53;30.8;30.9;1827766
20100607;30.9;31.23;30.23;30.26;2573294
20100608;30.28;31.16;30.14;31.07;2710149
20100609;31.33;31.63;30.79;30.96;2723634
20100610;31.44;31.85;31.33;31.66;2380141
20100611;31.39;32.47;31.39;32.39;2295937
20100614;32.66;32.81;32.01;32.04;2047427
20100615;32.39;32.8;32.28;32.79;1073834
20100616;34.25;34.25;33.15;33.27;2981538
20100617;33.46;33.47;32.35;33.08;2227019
20100618;33.07;33.65;33.07;33.33;1743671
20100621;33.86;34.14;33.2;33.41;1146303
20100622;33.48;33.64;32.75;32.77;1348656
20100623;32.8;32.91;32.16;32.55;1455981
20100624;32.31;32.33;31.5;31.56;1512680
20100625;31.61;31.85;31.19;31.48;2615446
20100628;31.61;31.75;31.2;31.45;968656
20100629;30.89;30.89;30.32;30.5;1744537
20100630;30.5;31.02;30.12;30.21;1181858
20100701;30.11;30.67;29.85;30.53;2383507
20100702;30.61;30.84;29.96;30.29;1158989
20100706;30.63;30.94;29.98;30.28;1551038
20100707;30.21;31.54;30.16;31.54;1588770
20100708;31.98;32.3;31.68;32.13;1735799
20100709;32.07;32.54;31.97;32.31;1084674
20100712;32.22;32.24;31.61;31.89;1675315
20100713;32.17;32.8;32.12;32.67;1705744
20100714;32.51;32.83;31.88;32.26;2095721
20100715;32.26;32.61;31.8;32.3;1442365
20100716;32.16;32.24;31.14;31.23;1689266
20100719;31.41;31.57;30.79;31.08;1691125
20100720;30.74;32.37;30.74;32.32;2792905
20100721;32.57;32.76;32.12;32.4;2069472
20100722;32.72;33.4;32.51;33;1512832
20100723;32.99;33.86;32.91;33.83;1270315
20100726;33.93;34.12;33.67;34.1;1644867
20100727;34.42;34.77;34.25;34.4;2537058
20100728;34.2;34.59;34.2;34.42;1230021
20100729;34.59;34.88;33.92;34.41;1327732
20100730;33.95;34.86;33.93;34.74;1286585
20100802;35.06;35.64;35;35.56;1272526
20100803;35.21;35.5;34.94;35.01;1249286
20100804;35.14;35.47;35.1;35.44;1052807
20100805;35.27;35.43;34.8;35.13;1535518
20100806;34.69;35.05;34.27;34.78;1336939
20100809;34.91;35.08;34.7;34.88;837558
20100810;34.62;34.91;34.32;34.67;1118624
20100811;33.97;33.97;33.36;33.53;1144220
20100812;32.91;33.51;32.88;33.43;930442
20100813;33.25;33.49;33.14;33.16;721933
20100816;32.92;33.39;32.73;33.26;733469
20100817;33.67;34.13;33.64;33.87;1133646
20100818;33.86;33.86;33.35;33.63;1116636
20100819;33.43;33.5;32.52;32.8;1200313
20100820;32.5;32.77;32.36;32.7;1027207
20100823;32.91;33.09;32.48;32.51;614083
20100824;32.16;32.36;32.02;32.11;1329258
20100825;31.96;32.7;31.56;32.57;1635389
20100826;32.77;33.22;32.59;32.66;1237916
20100827;32.88;33.56;32.49;33.55;1053730
20100830;33.36;33.45;32.74;32.74;1057081
20100831;32.62;33.07;32.47;32.92;1368640
20100901;33.42;34.2;33.26;34.08;1163815
20100902;34.2;34.47;34.12;34.46;683303
20100903;34.73;35.11;34.73;34.99;1209826
20100907;34.73;34.79;34.04;34.14;1460179
20100908;34.14;34.74;34.11;34.55;1173198
20100909;34.99;34.99;34.59;34.66;718851
20100910;34.78;35.5;34.76;35.39;1709858
20100913;35.74;35.95;35.7;35.82;1506461
20100914;35.61;35.81;35.48;35.67;1329017
20100915;35.56;35.95;35.15;35.81;1171188
20100916;35.64;36.16;35.56;36.12;1495978
20100917;36.15;36.36;35.84;36.03;1246540
20100920;36.19;36.47;36;36.33;1354599
20100921;36.22;36.37;35.82;36.1;1747365
20100922;36.04;36.46;36.04;36.04;1444221
20100923;35.81;36.16;35.56;35.73;1048623
20100924;36.26;36.59;36.04;36.46;991435
20100927;36.47;36.6;36.29;36.39;668865
20100928;36.53;36.66;35.82;36.57;1300081
20100929;36.38;36.75;36.27;36.45;1364341
20100930;36.75;37;36.17;36.4;1816519
20101001;36.75;36.75;36.34;36.55;612999
20101004;36.38;36.54;36.05;36.12;1296841
20101005;36.47;37.17;36.38;37;1408285
20101006;36.88;37.48;36.88;37.38;1239987
20101007;37.5;37.5;36.96;37.28;936123
20101008;37.26;37.73;37.23;37.6;764678
20101011;37.69;37.8;37.37;37.5;769973
20101012;37.31;37.83;37.13;37.75;1072348
20101013;37.93;38.31;37.93;38.12;1074383
20101014;38.1;38.28;37.94;38.17;1491324
20101015;38.52;38.67;37.92;38.39;1527241
20101018;38.43;38.54;38.2;38.44;982196
20101019;37.91;38.4;37.63;37.89;1303209
20101020;37.97;38.98;37.7;38.73;1263947
20101021;38.25;38.69;37.98;38.34;1677226
20101022;38.69;38.69;38.13;38.22;1102296
20101025;38.45;39;38.31;38.67;1173215
20101026;38.36;38.84;38.13;38.65;1263872
20101027;38.15;38.44;37.92;38.39;1008044
20101028;38.61;38.8;38.05;38.3;940470
20101029;38.14;38.58;38.05;38.35;1022522
20101101;38.56;38.93;38.13;38.34;1441899
20101102;38.65;39.07;38.65;38.82;969859
20101103;38.85;39.11;38.45;38.95;1195903
20101104;39.35;39.71;39.27;39.57;1175766
20101105;39.53;39.92;39.33;39.84;1277690
20101108;39.48;39.69;39.33;39.55;1073662
20101109;39.6;39.71;38.97;39.13;870164
20101110;39.07;39.17;38.56;39.01;1472613
20101111;38.69;39.24;38.57;39.06;1093722
20101112;38.56;38.9;38.2;38.39;1011531
20101115;38.46;38.94;38.36;38.43;1150393
20101116;38.15;38.19;37.51;37.79;1546042
20101117;37.84;38.32;37.68;38.04;1129522
20101118;38.56;39.01;38.5;38.78;988950
20101119;38.71;38.87;38.46;38.69;944776
20101122;38.47;38.78;38.01;38.68;746994
20101123;38.15;38.21;37.67;37.96;862176
20101124;38.21;38.91;38.21;38.9;762549
20101126;38.49;39;38.44;38.82;615726
20101129;38.5;38.98;38.11;38.9;1277717
20101130;38.51;39.25;38.38;38.98;2090279
20101201;39.56;39.98;39.5;39.93;1162728
20101202;39.89;40.15;39.76;40.1;1259890
20101203;39.91;40.5;39.84;40.4;1008322
20101206;40.22;40.25;39.89;39.98;949963
20101207;40.39;40.5;40.16;40.23;1198794
20101208;40.2;40.4;39.8;39.92;1006785
20101209;40.12;40.12;39.76;40.03;885579
20101210;40.22;40.46;40.09;40.45;976836
20101213;40.49;40.65;40.23;40.23;1219028
20101214;40.35;40.8;40.24;40.67;1045066
20101215;40.58;41.3;40.58;41.05;1387274
20101216;41;41;40.51;40.73;1759888
20101217;40.82;41.08;40.52;41.01;2309155
20101220;40.98;41.25;40.89;41.18;884661
20101221;41.25;41.48;41.2;41.24;985317
20101222;41.37;41.43;41.12;41.32;502806
20101223;41.3;41.5;41.22;41.4;484626
20101227;41.21;41.6;41.15;41.51;524369
20101228;41.48;42.03;41.47;41.93;967101
20101229;41.93;42.23;41.93;42.11;725850
20101230;41.98;42.14;41.79;41.93;788394
20101231;41.93;42.3;41.85;42.04;754234
20110103;42.26;42.52;42.16;42.35;931187
20110104;42.33;42.35;41.45;41.72;1171159
20110105;41.64;42.06;41.52;41.95;1240146
20110106;41.93;41.99;41.67;41.8;1321337
20110107;41.53;41.77;40.9;41.16;1658021
20110110;41.04;41.44;40.56;41.29;1536164
20110111;41.32;41.5;40.95;41.02;1195855
20110112;41.28;41.59;41.21;41.51;821939
20110113;41.4;41.54;41.19;41.27;663052
20110114;41.37;41.66;41.12;41.57;860178
20110118;41.65;41.78;41.52;41.6;1066603
20110119;41.62;41.71;41.06;41.4;1716960
20110120;40.25;40.95;39.38;40.68;3042533
20110121;41.04;41.47;40.91;41.08;1782576
20110124;41.13;41.67;41.04;41.66;1545746
20110125;41.57;41.98;41.38;41.79;1167865
20110126;42;42.72;41.86;42.4;1432446
20110127;42;42.26;41.73;41.96;1259813
20110128;42.11;42.68;41.48;41.62;2212928
20110131;41.72;42.5;41.67;42.14;2145841
20110201;42.38;43.11;42.38;43.01;1593045
20110202;42.82;42.91;42.46;42.58;827445
20110203;42.53;42.94;42.21;42.8;904709
20110204;42.81;43.02;42.48;42.93;656766
20110207;43.04;43.44;42.94;43.05;1542480
20110208;43.04;43.45;43.02;43.37;916332
20110209;43.15;43.33;42.83;43.25;834690
20110210;43.04;43.9;42.91;43.76;1041101
20110211;43.56;44.35;43.51;44.19;1015831
20110214;44.2;44.43;44.13;44.25;1020351
20110215;44.13;44.44;44;44.18;1288404
20110216;44.09;44.51;44.06;44.35;1173133
20110217;44.29;44.8;44.18;44.73;838349
20110218;44.97;45.17;44.56;45.07;1342255
20110222;44.37;44.57;43.48;43.53;1368597
20110223;43.54;43.85;42.58;43.28;1739910
20110224;43.21;43.63;42.34;42.98;1298418
20110225;43.37;43.88;43.15;43.72;1382086
20110228;43.79;44.37;43.78;44.19;1337671
20110301;44.44;44.58;43.83;43.87;1859314
20110302;43.71;44.34;43.7;44.01;1558573
20110303;44.46;44.91;44.45;44.87;1041922
20110304;44.75;44.91;43.95;44.29;1109596
20110307;44.47;44.82;43.43;43.76;1449905
20110308;43.93;44.58;43.6;44.42;807036
20110309;44.26;44.41;43.68;44.03;862160
20110310;43.61;43.65;43;43.23;1358991
20110311;43.02;44;42.98;43.75;1202684
20110314;43.63;44.09;43.38;43.92;904069
20110315;42.65;43.72;42.51;43.4;1496015
20110316;43.19;43.53;42.35;42.76;1808989
20110317;43.51;44.35;43.39;43.58;2055817
20110318;44.29;44.48;43.7;43.73;2023067
20110321;44.44;44.48;44.11;44.28;1423879
20110322;44.48;44.49;43.98;44.05;1031726
20110323;43.89;44.3;43.5;44.14;955798
20110324;44.39;44.49;43.96;44.34;633718
20110325;44.5;45;44.39;44.72;943326
20110328;44.92;45;44.64;44.69;993788
20110329;44.7;45.32;44.51;45.3;1326389
20110330;47.22;48.28;46.85;47.97;4759290
20110331;47.77;47.98;47.57;47.61;1911276
20110401;47.77;48.28;47.33;47.55;1586924
20110404;47.6;48.38;47.59;48.25;1446037
20110405;48.08;48.91;47.74;48.18;1318197
20110406;48.43;48.58;48.11;48.21;1117257
20110407;48.2;48.49;47.78;48.04;1000282
20110408;48.2;48.35;47.29;47.67;899211
20110411;47.74;48;47.25;47.47;785630
20110412;47.07;47.37;46.74;46.88;966201
20110413;47.15;47.22;45.8;46.14;1755941
20110414;46;46.44;45.86;46.25;1277513
20110415;46.39;46.51;45.92;46.33;1735724
20110418;45.72;45.86;45.07;45.7;1333875
20110419;45.76;46.6;45.7;46.57;1121585
20110420;47.23;47.48;46.8;47.27;1608010
20110421;47.31;47.87;46.96;47.32;1076289
20110425;47.44;47.5;46.6;46.72;795066
20110426;47.04;47.34;46.78;46.99;811448
20110427;47.1;47.15;46.22;46.8;1119252
20110428;46.78;47.16;46.73;47.07;635251
20110429;47.3;47.37;46.87;47.34;1105028
20110502;47.5;47.75;47.01;47.07;765702
20110503;47.12;47.2;45.67;46.05;1276681
20110504;46.02;46.25;44.89;45.2;1159140
20110505;44.99;45.68;44.89;45.12;1181384
20110506;45.55;45.96;44.97;45.2;1455961
20110509;45.26;45.81;45.13;45.64;754569
20110510;45.86;46.16;45.65;45.89;784047
20110511;45.89;45.9;44.79;45;1168115
20110512;44.98;45.02;44.27;44.86;1148022
20110513;44.76;45.02;43.91;44.24;1020777
20110516;44.09;44.85;43.95;44.31;1145524
20110517;44.17;44.26;43.42;43.71;1434823
20110518;43.87;44.62;43.61;44.54;1119232
20110519;44.77;45.04;44.18;44.47;785057
20110520;44.45;44.45;43.51;44.03;863971
20110523;43.47;43.5;43.03;43.33;1054972
20110524;43.47;43.77;42.88;42.97;1014958
20110525;42.8;43.83;42.8;43.67;1025668
20110526;43.6;43.83;43.2;43.55;968304
20110527;43.78;44.15;43.69;43.9;623285
20110531;44.29;44.47;43.9;44.35;954061
20110601;44.22;44.32;43.36;43.38;1132772
20110602;43.32;43.82;42.86;43.09;1009640
20110603;42.48;42.64;42.2;42.47;1092166
20110606;42.44;42.71;42.03;42.05;693998
20110607;42.44;43.13;42.36;42.84;1545499
20110608;42.62;42.62;42.13;42.23;1076167
20110609;42.34;42.88;42.17;42.63;726705
20110610;42.53;42.54;41.98;42.06;1069739
20110613;42.13;42.28;41.7;41.92;1041580
20110614;42.43;42.94;42.43;42.75;723810
20110615;42.23;42.48;41.63;41.99;1182430
20110616;41.86;42.34;41.38;42.06;1239899
20110617;42.36;42.63;42.15;42.38;1689294
20110620;42.24;42.87;42.2;42.72;765062
20110621;43.01;43.95;42.92;43.87;931143
20110622;43.87;44.3;43.6;43.87;1111233
20110623;43.17;43.54;42.63;43.51;1230761
20110624;43.58;43.71;43.14;43.58;3253148
20110627;43.36;43.75;42.71;43.48;1389164
20110628;43.75;44.23;43.44;44.23;1310542
20110629;44.4;44.7;43.96;44.57;1135307
20110630;44.76;45.49;44.58;45.4;1085629
20110701;45.49;46.01;45.22;45.93;787935
20110705;45.8;45.88;45.5;45.75;995611
20110706;45.9;46.7;45.79;46.26;1690498
20110707;46.76;46.93;46.55;46.69;1062825
20110708;46.02;46.12;45.69;46.06;1427555
20110711;45.29;45.59;44.93;45.14;1049686
20110712;45.01;45.35;44.86;44.93;1104597
20110713;45.22;45.47;44.86;44.97;1145185
20110714;44.99;45.12;44.15;44.23;1698312
20110715;44.43;44.88;44.3;44.84;1165574
20110718;44.75;44.75;44.09;44.36;1387996
20110719;44.59;44.96;44.49;44.62;1382506
20110720;44.72;44.84;44.35;44.68;841677
20110721;45.78;45.83;44.88;44.99;1424163
20110722;45;45.29;44.34;44.47;1434855
20110725;44.08;44.85;43.9;44.28;1479259
20110726;44.24;44.26;43.21;43.3;1708461
20110727;43.1;43.27;42.46;42.5;1266257
20110728;42.67;43.19;42.21;42.28;1217995
20110729;41.7;42.45;41.53;42.1;1251386
20110801;42.71;42.86;41.41;41.95;1502004
20110802;41.69;42.09;40.85;40.86;1833614
20110803;41.03;41.38;39.83;41.32;2601631
20110804;40.76;40.76;38.81;38.84;2747154
20110805;39.58;39.8;38.12;38.94;3049064
20110808;37.85;38.31;36;36.48;3420654
20110809;37.05;38.76;36.38;38.66;2747064
20110810;37.68;37.94;36.46;36.53;2515674
20110811;36.69;37.88;36.48;37.46;3247477
20110812;38.08;38.14;37.38;37.53;2512285
20110815;37.82;38.34;37.57;38.31;1986070
20110816;37.88;38.01;37.21;37.6;1426504
20110817;37.84;38.39;37.39;37.65;1269478
20110818;36.57;36.63;34.93;35.21;2282655
20110819;34.7;35.62;34.4;34.44;2050946
20110822;35.17;35.4;34.35;34.47;1347653
20110823;34.62;35.57;34.43;35.57;1449033
20110824;35.41;36;35.15;35.95;1125031
20110825;36.18;36.37;35.35;35.54;905759
20110826;35.67;36.34;34.57;36.17;1360499
20110829;36.67;37.76;36.64;37.75;1327394
20110830;37.58;38.47;37.46;38.24;1648059
20110831;38.52;38.82;38.04;38.3;1615380
20110901;38.35;38.58;37.48;37.52;1698491
20110902;36.75;37.01;36.67;36.79;2242155
20110906;35.77;36.63;35.65;36.6;2261372
20110907;37.17;37.52;37.15;37.51;2392427
20110908;37.27;37.71;37.18;37.42;2441302
20110909;36.96;36.99;36.33;36.55;2186360
20110912;36.14;36.73;35.77;36.56;1817079
20110913;36.8;37.46;36.56;37.35;1308480
20110914;37.59;38.47;36.91;38;1594336
20110915;38.39;38.86;38.25;38.71;969443
20110916;38.94;39.38;38.76;39.32;1833017
20110919;38.49;39;38;38.86;1760891
20110920;39.07;39.57;38.51;38.76;1615214
20110921;38.7;38.82;36.75;36.77;1701405
20110922;35.56;35.62;34.46;35.05;2151202
20110923;34.75;35.3;34.14;34.41;2148241
20110926;34.78;36.25;34.25;36.22;2115854
20110927;37.23;38.08;36.79;37.26;2176431
20110928;37.35;37.43;35.73;35.75;1575114
20110929;37.07;37.07;35.5;36.18;1638895
20110930;35.54;36.1;35.25;35.33;1789974
20111003;35;35.78;34.29;34.34;2324791
20111004;33.83;35.38;33.22;35.34;1877730
20111005;35.58;36.55;35.11;36.38;1417277
20111006;36.2;36.91;35.6;36.86;1577946
20111007;36.93;37.33;36.22;36.74;1215864
20111010;37.5;38.33;37.48;38.22;886723
20111011;38.06;38.41;37.83;38.11;884070
20111012;38.46;39.22;38.46;38.88;1132550
20111013;38.38;38.96;38.09;38.84;1115242
20111014;39.42;39.92;39.07;39.86;861895
20111017;39.79;39.95;38.77;38.92;1203286
20111018;38.85;40.6;38.64;40.37;1284698
20111019;40.25;40.5;39.15;39.42;1607074
20111020;40.09;40.47;39.15;40.34;1541767
20111021;40.99;41.88;40.86;41.84;1626482
20111024;41.99;42.43;41.8;42.2;2070577
20111025;42.05;42.33;41.21;41.27;1219464
20111026;42.04;42.7;41.38;42.43;1287707
20111027;43.57;44.98;43.23;44.48;1661044
20111028;44.11;45;43.9;44.69;1373980
20111031;43.89;44.04;43.18;43.21;1285101
20111101;41.54;43.32;41.54;42.3;1459987
20111102;42.82;43.67;42.68;43.35;764267
20111103;44;44.48;43.39;44.33;904043
20111104;44.05;44.4;43.28;44.26;689701
20111107;44.37;44.68;43.55;44.45;772686
20111108;44.39;44.8;43.77;44.69;796330
20111109;43.4;43.61;42.4;42.71;1391143
20111110;43.16;43.49;42.54;43.11;1024017
20111111;43.82;44.29;43.8;44.06;885266
20111114;43.89;44.05;43.31;43.65;1107633
20111115;43.43;44;43.16;43.68;927999
20111116;42.93;43.41;42.41;42.47;1550843
20111117;42.35;42.77;40.99;41.36;1685114
20111118;41.67;42.13;41.3;41.8;937440
20111121;41.19;41.23;40.56;40.92;1333474
20111122;40.76;41.31;40.32;40.64;1848717
20111123;40.15;40.33;39.7;39.79;919031
20111125;39.61;40.2;39.54;39.73;324354
20111128;41.15;41.63;40.98;41.28;939568
20111129;41.97;42.03;41.32;41.57;1270176
20111130;43.17;43.9;42.96;43.88;1280758
20111201;43.6;43.89;43.08;43.28;948289
20111202;43.26;43.49;42.3;42.44;1528308
20111205;43.21;43.53;42.32;42.59;1441412
20111206;42.56;43.13;42.25;42.72;962327
20111207;42.58;42.73;42.06;42.34;1477705
20111208;42.19;42.27;41.22;41.32;1418535
20111209;40.8;42.18;40.6;41.97;1474178
20111212;41.4;41.48;40.95;41.26;948016
20111213;41.61;42.04;40.37;40.68;1464003
20111214;40.42;40.68;39.94;40.1;1434490
20111215;40.7;40.8;39.82;40.06;1410645
20111216;40.45;41.07;40.1;40.44;1461638
20111219;40.5;40.72;39.4;39.57;1131101
20111220;40.02;40.69;39.98;40.39;2034194
20111221;40.58;41.12;40.27;41.08;1058456
20111222;41.14;41.33;40.86;41.18;1405385
20111223;41.27;41.78;41.18;41.76;606817
20111227;41.65;42.22;41.59;41.98;524272
20111228;42.06;42.12;41.32;41.4;699586
20111229;41.43;42.03;41.23;42;625413
20111230;42.06;42.12;41.75;41.75;556910
20120103;42.65;43.14;42.48;42.56;737177
20120104;42.55;42.84;42.29;42.65;727083
20120105;42.25;42.32;41.64;42.27;1144522
20120106;42.24;42.47;42.12;42.38;626603
20120109;42.4;42.49;41.96;42.17;855768
20120110;42.71;43.33;42.66;43.07;767929
20120111;42.95;43.3;42.91;43.3;795426
20120112;43.38;44.05;43.23;44;682176
20120113;43.85;44.01;43.21;43.76;720150
20120117;44.37;44.52;43.8;44.02;691099
20120118;44.14;44.99;44.04;44.95;1049995
20120119;44.7;44.7;43.37;43.88;2010571
20120120;43.85;44.6;43.85;44.46;1216590
20120123;44.43;44.5;44.01;44.17;678948
20120124;43.75;44.31;43.62;44.25;900333
20120125;44.04;44.85;43.83;44.71;683199
20120126;44.98;45.45;44.26;44.42;954999
20120127;44.37;44.76;44.04;44.53;790592
20120130;44.02;44.8;43.81;44.74;804734
20120131;44.9;45;44.27;44.79;1079321
20120201;45.36;45.82;45.15;45.43;1154299
20120202;45.49;45.49;44.85;44.9;662808
20120203;45.49;45.78;45.35;45.61;1093357
20120206;45.34;45.47;45.22;45.44;486369
20120207;45.29;45.7;45;45.64;689131
20120208;45.62;45.85;45.19;45.81;611953
20120209;45.81;46.05;45.58;46.02;923199
20120210;45.58;45.58;45.09;45.42;744922
20120213;45.71;45.92;45.42;45.54;517524
20120214;45.52;45.69;44.84;45.26;971537
20120215;45.31;45.31;44.68;44.97;809865
20120216;45.04;45.76;44.95;45.7;702578
20120217;45.93;46.23;45.77;46.06;808313
20120221;45.66;46.15;45.45;45.99;1424131
20120222;45.99;46.58;45.87;45.9;1024296
20120223;45.85;46.25;45.74;46.1;505020
20120224;46;46.28;45.74;45.84;645250
20120227;45.6;46.59;45.35;46.47;888197
20120228;46.4;46.84;46.18;46.47;1060644
20120229;46.46;46.57;45.47;45.63;1170294
20120301;45.75;46.49;45.75;46.33;814202
20120302;46.48;46.7;46.06;46.25;557868
20120305;46.08;46.15;45.6;45.81;655053
20120306;45.12;45.48;45.02;45.21;778012
20120307;45.32;45.47;45.03;45.28;979099
20120308;45.76;46.7;45.7;46.47;1028662
20120309;46.5;46.82;46.3;46.39;749292
20120312;46.48;46.82;46.34;46.55;651330
20120313;46.86;47.21;46.69;47.16;858726
20120314;47.09;47.3;46.63;46.84;765250
20120315;46.95;46.99;46.63;46.82;1020249
20120316;47.04;47.26;46.67;46.8;1405159
20120319;46.68;47.39;46.68;47.23;1784860
20120320;46.88;47.1;46.66;46.97;1207340
20120321;46.95;47.33;46.69;47.07;786528
20120322;46.8;46.81;46.29;46.48;701742
20120323;46.54;47.09;46.19;46.83;752500
20120326;47.17;47.71;46.92;47.71;803164
20120327;47.79;48.17;47.72;47.87;806616
20120328;47.88;48.2;47.19;47.39;1155563
20120329;47;47.91;47;47.85;1034756
20120330;48.2;48.2;47.71;47.9;689824
20120402;47.82;48.9;47.8;48.84;1573685
20120403;48.61;48.69;47.26;47.84;2169889
20120404;47.49;47.52;46.87;46.96;2193750
20120405;48.85;49.28;47.65;48.15;5309028
20120409;47.49;47.82;47.1;47.13;2804117
20120410;47.05;47.19;45.92;46.05;3233704
20120411;46.66;47.44;46.56;47.27;1502438
20120412;47.38;48.56;47.22;48.42;1675788
20120413;48.16;48.31;47.8;47.86;1405922
20120416;48.62;48.75;47.76;48.45;1237409
20120417;48.79;49.37;48.63;49.17;1226146
20120418;48.82;49.45;48.58;49.24;1580520
20120419;49.49;50.95;48.7;50.5;3663638
20120420;50.65;51.09;50.15;50.65;2009431
20120423;50.3;50.52;49.7;50.51;1676998
20120424;50.61;51.08;50.55;51;1815008
20120425;51.34;52.14;51.2;52.09;1172202
20120426;51.85;52.91;51.7;52.61;1237035
20120427;52.86;53.06;52.54;52.83;858279
20120430;52.95;53.2;52.46;52.62;1028715
20120501;52.54;53.84;52.49;53.52;1648303
20120502;53.12;53.66;53.05;53.6;1202146
20120503;53.5;53.98;53.28;53.6;1079509
20120504;53.3;53.38;52.71;52.84;1173150
20120507;52.51;53.52;52.48;53.45;1002522
20120508;53;53.37;52.48;53.26;1237505
20120509;52.45;53.35;52.13;52.97;1501392
20120510;53.5;53.51;52.74;52.87;974878
20120511;52.6;53.19;52.46;52.6;1036276
20120514;52;52.26;51.49;51.56;1414875
20120515;51.41;51.81;50.94;51.09;1402472
20120516;51.22;51.73;50.81;50.88;797498
20120517;51;51.07;49.39;49.43;1315922
20120518;49.84;49.88;48.55;48.78;1350972
20120521;49.07;49.86;48.81;49.77;942531
20120522;50;50.36;49.37;49.63;826084
20120523;49.18;50.63;48.94;50.4;1617452
20120524;51.94;52.3;51.12;52.1;2030240
20120525;51.76;52.33;51.33;51.59;963901
20120529;52.31;52.98;52.14;52.55;987592
20120530;52.04;52.11;50.86;51.13;1495395
20120531;51.21;52.07;50.66;51.72;1249318
20120601;50.19;50.75;49.36;49.48;1481046
20120604;49.46;49.5;48.37;48.89;1402780
20120605;48.67;49.58;48.65;49.5;965437
20120606;49.95;50.91;49.94;50.91;917620
20120607;51.78;52.23;51.2;51.29;1795828
20120608;51.21;51.91;50.89;51.84;580513
20120611;52.4;52.46;50.9;50.98;1030698
20120612;51.23;52.13;50.92;52.08;715317
20120613;51.69;51.82;50.79;50.96;646313
20120614;51.02;51.23;50.31;50.88;1082456
20120615;51.24;52.13;51.1;52.07;1008952
20120618;51.77;52.45;51.66;52.39;578179
20120619;52.62;53.35;52.61;53.09;774681
20120620;53.02;53.45;52.67;53.02;690586
20120621;53.05;53.22;51.13;51.21;849012
20120622;51.91;52.37;51.18;52.1;1656673
20120625;51.62;51.62;50.59;50.67;1360100
20120626;50.91;51.73;50.58;51.42;1055835
20120627;51.17;51.96;51.17;51.74;744118
20120628;51.51;51.85;50.83;51.75;1088543
20120629;52.61;53.09;52.42;53.06;770207
20120702;53.16;53.16;51.89;52.35;888341
20120703;52.24;52.62;51.97;52.44;545034
20120705;52.2;53.06;52.01;52.75;619597
20120706;52.1;52.95;51.93;52.79;886670
20120709;52.69;52.79;51.5;51.69;1028423
20120710;51.75;52.22;50.81;51.07;625007
20120711;51.08;51.1;49.92;50.44;1397927
20120712;49.95;50.63;49.56;50.33;752660
20120713;50.64;51.73;50.64;51.67;1021252
20120716;51.45;51.69;50.8;51.07;660080
20120717;51.3;52.16;50.96;52.07;905167
20120718;51.74;52.43;51.74;52.1;837395
20120719;54.63;56.09;53.43;55.98;4231924
20120720;55.28;57.31;54.73;56.93;2992077
20120723;55.45;56.25;55.08;55.38;2089994
20120724;55.52;55.52;53.82;54.28;1453973
20120725;54.54;54.83;53.65;53.75;1326288
20120726;54.9;54.9;53.96;54.12;1203290
20120727;54.5;55.34;54.4;55.21;1233611
20120730;55.13;55.93;55.05;55.5;721223
20120731;55.42;55.57;54.69;54.73;1082578
20120801;54.97;55.55;54.03;54.03;930564
20120802;53.63;54.02;52.94;53.82;1063104
20120803;54.75;54.84;54.22;54.6;1067879
20120806;54.56;55.27;54.42;54.95;1026833
20120807;55.32;55.89;54.86;55.76;1047221
20120808;55.21;55.75;54.32;55.56;976507
20120809;55.38;55.93;55.23;55.69;528655
20120810;55.37;55.41;54.91;55.41;650516
20120813;55.42;55.5;54.58;55.07;459884
20120814;55.12;55.41;54.07;54.24;852702
20120815;54.16;54.78;53.98;54.72;493224
20120816;54.88;55.15;54.43;55.02;450794
20120817;55.28;55.33;55.03;55.13;621825
20120820;54.92;55.1;54.4;54.58;698776
20120821;54.58;54.77;53.58;53.74;941487
20120822;53.45;55.54;53.43;55.53;1226223
20120823;55.28;55.35;54.37;54.5;1012619
20120824;54.48;54.74;54.09;54.58;760866
20120827;54.75;54.91;54.28;54.69;926320
20120828;54.48;54.67;54.33;54.45;677660
20120829;54.53;54.95;54.13;54.86;715405
20120830;54.62;54.79;54.15;54.25;815977
20120831;54.71;55.14;54.31;55.01;649060
20120904;54.85;55;53.82;54.09;803780
20120905;54.2;54.49;53.72;54.39;727572
20120906;54.8;56.51;54.68;56.5;1298965
20120907;56.5;56.85;55.52;56.57;1329715
20120910;57.37;58.4;57.18;57.9;1559916
20120911;57.97;58.24;57.4;57.94;983367
20120912;58.12;58.43;57.64;57.89;1091544
20120913;57.98;59.82;57.9;59.29;1226943
20120914;59.4;59.93;59.07;59.42;1266099
20120917;59.1;59.52;58.89;59.25;684810
20120918;59.25;59.25;58.4;58.73;745549
20120919;58.71;58.98;58.12;58.62;841825
20120920;58.18;59.23;58.01;59.19;1109041
20120921;59.65;59.65;58.69;58.8;1256450
20120924;58.5;58.68;58.04;58.41;615852
20120925;58.62;58.72;57.5;57.52;706152
20120926;57.53;57.9;57.04;57.3;626699
20120927;57.51;58.02;57.15;57.62;505616
20120928;57.13;57.61;56.6;57.42;529180
20121001;57.64;58.16;57.37;57.78;781598
20121002;57.89;57.96;57;57.32;448535
20121003;57.2;58.32;57.09;58.31;943762
20121004;58.53;58.82;58.08;58.51;742881
20121005;59.11;59.21;58.52;58.97;861868
20121008;58.77;59.02;58.19;58.86;634760
20121009;58.82;58.82;57.79;57.86;533447
20121010;57.55;57.99;57.21;57.68;768820
20121011;58.24;58.54;57.73;57.73;511367
20121012;57.8;58.08;56.7;57.12;724934
20121015;57.19;58.13;56.88;58.07;618406
20121016;58.49;59.45;57.97;58.91;894207
20121017;59.03;60;58.72;59.49;1127123
20121018;59.44;60;58.8;59.55;1032719
20121019;59.72;59.82;58.47;58.87;922138
20121022;58.67;59.17;58.17;58.85;384402
20121023;57.29;58.16;56.85;57.77;735825
20121024;58.15;58.87;57.97;58.59;884338
20121025;58.99;59;57.75;58.01;637172
20121026;58.01;58.32;57.57;58.06;524764
20121031;58.22;58.74;57.98;58.54;749669
20121101;59.34;60.97;58.69;60.9;938821
20121102;61.47;64.21;59.94;59.96;677733
20121105;59.92;60.95;59.64;60.89;497176
20121106;61.04;61.88;60.86;61.6;1227530
20121107;61.27;61.3;59.85;60.32;658558
20121108;60.33;60.68;58.79;58.81;826152
20121109;58.69;59.28;58.39;58.69;669244
20121112;58.92;59.31;58.38;58.74;932627
20121113;58.24;59.26;58.15;58.73;537298
20121114;58.92;59.06;58;58.16;894809
20121115;58.13;58.53;57.11;57.63;753917
20121116;57.69;57.88;56.91;57.81;752271
20121119;58.64;60.26;58.64;60.03;970266
20121120;59.92;60.8;59.53;60.78;974816
20121121;60.77;60.97;60.45;60.88;617374
20121123;61.26;61.73;61.04;61.69;215124
20121126;61.26;61.6;61.08;61.51;714340
20121127;61.37;61.56;61;61.2;1317799
20121128;60.59;61.09;59.98;60.95;1428834
20121129;61.21;61.55;60.7;61.32;956511
20121130;61.31;62.44;60.98;62.14;1562678
20121203;62.5;62.5;60.39;60.47;1592488
20121204;60.5;60.92;59.7;60.16;1333572
20121205;60.11;60.6;59.52;59.73;1516778
20121206;59.84;61.68;59.38;61.61;1413460
20121207;61.28;61.67;60.06;60.69;1591484
20121210;60.59;62.19;60.52;61.92;1108045
20121211;62.13;62.85;61.86;62.52;1359389
20121212;62.88;62.88;62.1;62.28;1381609
20121213;62.36;62.93;62.13;62.61;1481414
20121214;64.53;66.44;64.05;64.97;3486799
20121217;65.28;65.9;64.36;65.1;2150918
20121218;65.39;66.63;65.11;66.24;2066801
20121219;66.19;66.36;65.58;65.61;1283961
20121220;66.01;67.25;65.95;67.2;1302633
20121221;66.41;67.13;66.17;66.63;3381572
20121224;66.45;67.76;66.2;67.62;941717
20121226;68.1;68.11;67.36;67.37;1358109
20121227;67.23;68.4;65.73;66.56;3384242
20121228;66.09;66.86;65.5;66.35;2614407
20121231;66.15;67.95;66.07;67.68;2239688
20130102;69.17;70.21;68.71;69.28;3188793
20130103;69.35;69.49;68.59;68.88;2635772
20130104;69;69.81;68.63;69.74;1951223
20130107;69.57;69.64;68.54;69.13;2674482
20130108;69.15;70.24;68.1;70.12;4553463
20130109;70.35;71.37;70.24;70.7;3486675
20130110;71.13;71.19;70;70.89;3156149
20130111;70.92;71.44;70.46;71.05;2850115
20130114;70.25;71.38;70;70.52;2935256
20130115;69.94;70.75;69.65;70.07;2436313
20130116;69.72;69.85;68.5;69.57;4828294
20130117;69.77;71.38;69.56;70.99;4282671
20130118;70.74;71.75;68.88;71.36;5588564
20130122;71.4;71.87;70.52;71.39;5836843
20130123;71.18;71.89;70.93;71.71;11796164
20130124;71.5;73.06;71.27;71.99;10460145
20130125;72.5;73.99;71.33;72.11;13009109
20130128;69.35;70.88;68.59;70;8193422
20130129;70;70.65;69.57;70.53;5176076
20130130;70.39;71.45;69.88;70.11;2005159
20130131;69.58;70.1;68.89;68.94;2417760
20130201;69.68;70.46;68.98;70.28;10083820
20130204;69.87;70.15;69.18;69.47;5810936
20130205;69.72;70.22;68.5;69.19;6171487
20130206;68.97;69.44;68.43;69.17;4672551
20130207;69.39;69.5;68.02;68.99;7747301
20130208;69;69.64;68.7;69.44;4359604
20130211;69.58;69.85;69.08;69.68;4025801
20130212;69.19;69.19;67.73;68.22;4475195
20130213;68.51;69.89;68.48;69.56;3813096
20130214;69.33;69.68;68.96;69.5;2413031
20130215;69.89;70.04;69.25;69.7;1738704
20130219;69.34;69.63;67.77;67.86;2968548
20130220;67.64;67.75;65.75;65.76;2590530
20130221;65.33;65.33;64.1;65.04;2199114
20130222;65.19;66.19;65.05;66.16;1644890
20130225;66.43;66.89;65.14;65.15;1985772
20130226;65.32;66.53;65.32;66.34;1728563
20130227;66.06;67.71;65.93;67.33;1044394
20130228;67.46;67.94;67.31;67.33;1350827
20130301;66.82;67.71;66.36;67.41;927193
20130304;67.3;67.83;67.09;67.8;787589
20130305;68;68.48;67.9;68.11;836836
20130306;68.28;68.46;67.38;67.73;1299234
20130307;67.86;67.98;67.46;67.74;966321
20130308;68.11;68.77;67.74;68.67;1052272
20130311;68.46;68.98;68.46;68.89;870360
20130312;68.78;69.65;68.78;69.57;1298792
20130313;69.53;70.83;69.48;70.76;1325088
20130314;70.9;71.62;70.81;71.12;975194
20130315;71.06;71.75;69.56;70.65;1592510
20130318;69.51;70.93;69.36;70.55;668548
20130319;70.85;70.86;69.77;70.44;866006
20130320;70.68;71.08;70.42;70.51;864591
20130321;69.57;70.03;68.64;68.65;1016329
20130322;68.5;69.12;67.8;67.99;736990
20130325;68.16;68.24;66.32;66.95;1155340
20130326;67.35;67.95;66.92;67.02;1194062
20130327;66.53;66.85;65.98;66.71;936448
20130328;66.67;67.05;66.44;66.97;1053416
20130401;66.83;67.24;66.6;67.08;1658626
20130402;67.38;67.5;66.6;66.85;840931
20130403;67.03;67.03;66.1;66.36;1368085
20130404;66.52;67.45;66.25;66.95;915214
20130405;65.87;66.38;65.32;65.87;884255
20130408;65.8;66.03;65.28;65.73;1015990
20130409;65.76;66.48;65.69;66.33;1280856
20130410;66.56;67.44;66.41;67.33;1041036
20130411;67.35;69.07;67.31;68.81;1086996
20130412;68.48;68.72;67.76;68.13;689996
20130415;67.59;67.73;65.7;65.72;1238690
20130416;66.36;67.34;66.06;67.28;1311433
20130417;66.69;66.99;65.88;66.2;1099300
20130418;67.83;71;67.83;70.33;2390432
20130419;70.33;71.12;69.8;70.8;1803529
20130422;70.81;72.03;70.41;71.78;1105698
20130423;71.98;72.44;71.56;72.4;797089
20130424;72.5;72.93;72.18;72.49;891838
20130425;73;74.28;72.73;73.46;968367
20130426;73.38;73.43;72.13;72.47;572316
20130429;72.82;73.61;72.44;73.51;556326
20130430;73.55;73.68;72.82;73.57;817954
20130501;72.91;73.55;72.56;72.6;1072169
20130502;72.94;74.44;72.66;74.24;823579
20130503;75.3;76.29;75.01;76.14;1020539
20130506;76.07;76.07;75.31;75.88;572118
20130507;75.94;76.69;75.89;76.61;508723
20130508;76.48;77.59;76.19;77.57;966119
20130509;77.33;77.57;76.79;76.96;885926
20130510;76.9;77.3;76.56;77.07;541155
20130513;76.83;76.99;76.22;76.61;381696
20130514;76.75;78.43;76.67;78.41;624307
20130515;78.03;78.93;77.79;78.24;824229
20130516;78.03;78.7;77.7;77.78;495472
20130517;78.36;79.45;77.95;79.42;573388
20130520;79.18;79.24;77.9;78.53;646418
20130521;78.77;79.72;78.51;79.47;705147
20130522;79.44;80.42;78.3;78.78;646271
20130523;77.72;78.95;77.18;78.43;558709
20130524;77.82;78.72;77.17;78.42;550220
20130528;79.45;79.75;78.04;78.67;568507
20130529;78.11;78.96;77.79;78.55;383958
20130530;78.7;78.82;77.86;78.16;404818
20130531;77.82;78.27;76.81;76.81;550651
20130603;77.24;77.65;76.1;77.57;661696
20130604;77.44;78.11;76.42;76.78;565941
20130605;76.53;76.73;74.97;75;574331
20130606;74.58;75.79;74.52;75.64;444382
20130607;76.55;77.67;76.26;77.46;683468
20130610;78;78;76.55;77.14;318226
20130611;75.9;76.92;75.51;75.95;440598
20130612;76.68;76.85;75.34;75.48;409297
20130613;75.23;77.95;75.23;77.64;827583
20130614;77.19;77.86;76.56;76.92;459707
20130617;77.5;78.47;77.18;78.06;557704
20130618;78.02;78.38;77.56;78.29;516185
20130619;78.16;78.61;77.05;77.09;500985
20130620;76.13;76.38;74.81;75.04;1065164
20130621;75.96;76.02;73.82;74.45;1046208
20130624;74.42;74.44;72.61;73.34;769180
20130625;74.59;75.12;73.39;73.92;650136
20130626;74.35;74.98;73.45;74.5;762221
20130627;75.05;75.26;74.17;74.52;779848
20130628;73.96;74.12;73;73.21;2337307
20130701;73.53;75.1;73.28;74.22;681407
20130702;73.93;74.91;73.87;74.54;701954
20130703;73.57;74.97;72.29;74.8;369222
20130705;75.29;76.35;75.29;76.21;644509
20130708;76.65;76.83;75.66;76.62;601485
20130709;77.27;78.39;76.52;78.27;857976
20130710;78.29;78.5;77.68;78.02;582138
20130711;79.56;79.76;78.57;79.02;885462
20130712;78.96;79.07;78.1;78.87;792215
20130715;78.99;79.02;78.36;78.5;425237
20130716;78.52;78.55;77.07;77.42;569677
20130717;77.82;78.47;77.69;78.43;646934
20130718;78.4;80.74;78.09;80;1368310
20130719;80.04;80.47;79.51;79.58;878563
20130722;79.5;80.57;79.46;79.86;1008419
20130723;80.39;80.67;79.47;79.57;671026
20130724;79.78;79.94;78.09;78.54;851909
20130725;78.55;79.4;78.47;79.37;563716
20130726;79.25;79.25;78.19;78.56;522171
20130729;79.12;80.74;78.71;80.59;774248
20130730;80.55;80.82;80;80.53;653516
20130731;80.75;81.13;80.01;80.22;631527
20130801;78.13;82.82;78.13;81.38;482716
20130802;81.25;81.77;80.23;81.18;499801
20130805;80.81;81.27;80.34;80.95;723546
20130806;80.78;80.82;79.77;80.71;661177
20130807;80.47;80.97;80.05;80.55;526612
20130808;81.02;81.36;80.19;80.92;796297
20130809;80.74;81.36;80.41;80.85;412865
20130812;80.51;80.96;80.14;80.67;750601
20130813;80.44;81.65;80.2;81.38;663928
20130814;81.48;81.72;80.98;81.19;664271
20130815;80.5;80.5;79.15;79.39;578670
20130816;79.03;79.69;78.79;79.3;688939
20130819;79.08;79.67;78.26;78.41;525828
20130820;78.47;80.03;78.41;79.49;807422
20130821;79.41;80.28;78.9;79.56;443662
20130822;79.72;80.24;78.93;80.08;330284
20130823;80.23;81.21;79.35;81.12;701713
20130826;81.32;81.43;79.88;80.14;430122
20130827;79.14;79.5;78.5;78.88;537707
20130828;78.47;78.85;77.8;77.88;819152
20130829;77.65;78.62;77.64;78.1;706215
20130830;78.27;78.63;77.85;78.11;374232
20130903;79.27;79.96;78.24;78.61;496111
20130904;78.45;79.72;78.18;79.47;565295
20130905;79.43;80.67;79.17;80.29;319508
20130906;80.49;80.59;78.79;79.63;645144
20130909;79.77;80.98;79.77;80.82;417342
20130910;81.42;81.86;81.11;81.86;620057
20130911;81.79;82.36;81.57;82.21;402997
20130912;82.1;82.76;81.16;81.44;445644
20130913;81.66;81.99;81.09;81.22;456888
20130916;82.6;82.95;82.18;82.6;429962
20130917;82.6;82.77;82.12;82.68;439222
20130918;82.33;83.99;81.81;83.91;555205
20130919;83.9;84.49;83.6;84;460266
20130920;84;86.11;83.08;83.14;708365
20130923;83.08;83.08;81.67;81.71;938178
20130924;81.84;82.59;81.61;81.74;795586
20130925;81.97;82.67;81.7;82.32;890214
20130926;82.55;83.48;82.4;83.33;456849
20130927;82.72;83.16;82.44;82.64;655611
20130930;81.89;83.57;81.76;83.53;752838
20131001;83.57;83.91;83.05;83.41;593143
20131002;82.77;83.32;82.43;83.32;666870
20131003;83.1;83.42;82.53;83.25;770409
20131004;83.07;85.5;82.99;85.45;923062
20131007;84.39;85.1;83.76;83.96;921474
20131008;83.96;84.01;81.35;81.41;870429
20131009;81.49;82.11;80.38;81.24;1115529
20131010;82.35;82.98;81.9;82.37;1150691
20131011;82.44;83.4;82.28;83.38;909313
20131014;82.73;83.25;82.34;83.07;619096
20131015;83.06;83.32;82.44;82.74;455807
20131016;83.6;84.01;82.78;83.11;961122
20131017;84.88;87.37;83.62;87.24;1534848
20131018;87.68;88.29;86.78;87.89;1353878
20131021;87.65;88.51;87.23;88.31;842693
20131022;88.93;90.37;88.26;90.06;909553
20131023;90.14;90.22;89.16;89.23;717637
20131024;89.38;89.81;88.98;89.73;361764
20131025;89.73;90.98;89.55;90.96;570125
20131028;90.97;91.04;90.17;90.45;500819
20131029;90.6;92.84;90.6;92.76;827329
20131030;93.14;93.64;89.57;90.83;1188420
20131031;90.87;92.28;90.78;91.29;917662
20131101;91.4;91.7;90.86;91.38;733271
20131104;91.75;91.8;90.84;91.73;607657
20131105;91.47;92.23;90.81;91.66;551384
20131106;91.17;92.42;91.17;91.4;863327
20131107;91.65;92.16;89.68;89.82;884211
20131108;90;90.9;89.69;90.79;1103594
20131111;90.87;91.58;90.79;91.08;748563
20131112;91.09;91.5;90.69;91.26;615225
20131113;90.84;92.45;90.79;92.31;981012
20131114;92.5;92.8;91.86;92.79;517193
20131115;93.19;93.45;92.34;92.45;683863
20131118;92.49;92.77;92.06;92.33;462430
20131119;92.12;92.75;92.03;92.38;312808
20131120;92.33;92.35;90.9;91.1;668706
20131121;91.66;91.96;91.23;91.66;666470
20131122;91.8;92.12;91.28;91.89;674623
20131125;91.91;92.77;91.91;92.1;487183
20131126;92.09;93;91.88;92.57;483215
20131127;92.6;92.78;92.03;92.27;454746
20131129;92.5;92.79;91.88;92.03;197225
20131202;92.17;92.77;91.68;91.83;509198
20131203;91.16;91.62;90.16;90.83;671378
20131204;90.86;92.3;90.86;91.48;964835
20131205;91;91.65;90.43;90.89;577980
20131206;92.5;93.98;91.48;93.92;947319
20131209;94.1;94.5;93.02;93.36;708483
20131210;93.36;94;92.95;93.68;551767
20131211;93.55;93.62;90.75;91.18;1087251
20131212;91.11;92.3;91.03;91.96;898928
20131213;91.97;92.57;91.15;91.46;676731
20131216;91.46;92.15;90.75;91.2;954029
20131217;91.61;92;90.96;91.81;893386
20131218;91.88;92.82;90.45;92.62;959547
20131219;92.43;92.91;92.18;92.65;717556
20131220;92.51;93.68;92.39;93.31;2267235
20131223;93.7;93.71;92.54;92.75;686770
20131224;92.81;93.8;92.81;93.79;186519
20131226;93.92;94.19;93.63;94.04;304882
20131227;94.29;94.29;93.63;93.89;391493
20131230;93.91;94.42;93.55;94.24;507570
20131231;94.39;95.04;94.13;94.83;519427
20140102;94.75;95.15;94.27;94.47;684221
20140103;94.7;95.05;94.44;94.71;407105
20140106;94.82;95;93.47;93.76;782444
20140107;93.8;94.57;93.01;94.14;1167403
20140108;94.28;95.1;93.71;94.74;1003253
20140109;94.86;95.62;94.63;95.07;1182984
20140110;95.29;95.77;94.82;95.29;1045112
20140113;94.97;95.68;93.6;93.88;1304477
20140114;94.29;95.51;93.79;95.45;959708
20140115;95.64;95.78;95.22;95.35;1069989
20140116;91.29;94.95;91.29;93.84;1647116
20140117;94.25;96.12;94.25;94.74;1828186
20140121;95.17;95.77;94.56;95;1169807
20140122;95.08;95.35;93.3;93.58;1421926
20140123;93.36;94.02;92.89;93.45;1228429
20140124;92.62;92.85;90.8;90.8;1242657
20140127;91;92.25;90.22;91.6;1390467
20140128;91.55;92.33;90.86;91.22;1016599
20140129;91.03;92.44;90.83;91.6;795455
20140130;91.85;92.83;91.44;92.34;595029
20140131;91.11;92.25;90.72;91.18;1360583
20140203;91.26;91.67;88.34;88.44;1283549
20140204;88.87;89.72;88.4;88.62;969005
20140205;87.95;88.82;86.91;88.61;1129321
20140206;88.72;89.66;88.41;89.46;829536
20140207;90.3;91.28;90.25;91.27;815039
20140210;91.07;92.46;90.87;91.97;1005343
20140211;92.21;93.31;91.76;92.58;997346
20140212;93.02;93.54;92.63;92.88;680925
20140213;92.5;93.92;92.08;93.62;687222
20140214;93.62;94.74;93.55;94.45;712085
20140218;94.23;94.25;93.11;93.3;1309949
20140219;92.83;94.37;92.8;93.53;859021
20140220;93.5;94.44;93.05;94.38;845370
20140221;94.39;95.4;94.35;94.94;1130013
20140224;94.75;95.5;94.25;94.26;847730
20140225;94.16;96;94.15;95.39;839583
20140226;95.2;97.06;95.13;96.57;890619
20140227;96.4;97.34;95.6;96.85;793068
20140228;97.02;99.08;96.88;98.91;1440335
20140303;96.62;99.17;96.62;98.53;807674
20140304;99.88;100.21;99.34;100.1;677034
20140305;100;100.48;99.56;99.77;597102
20140306;99.88;100.65;99.72;100.07;489568
20140307;100.17;100.62;99.62;100.04;770025
20140310;99.66;100.42;99.32;100.15;489590
20140311;100.5;100.5;98.73;98.76;886018
20140312;98.61;99.01;98.1;98.61;802751
20140313;99.12;99.4;97.26;97.46;511193
20140314;97.3;98.06;97.13;97.29;606980
20140317;97.6;98.6;97.37;97.98;834412
20140318;98.24;99.41;98.22;98.98;611568
20140319;99.45;99.61;97.23;97.58;747593
20140320;97.24;98.07;97.01;97.37;916871
20140321;98.24;99.07;97.27;97.56;1512393
20140324;98.05;98.2;96.13;96.61;504364
20140325;97.07;97.55;96.21;96.44;777733
20140326;96.71;97;95.21;95.21;746207
20140327;95.22;95.48;94.02;94.77;601489
20140328;95.02;95.86;94.71;95.41;506364
20140331;96.36;97.49;96.01;96.73;813890
20140401;97.54;98.36;96.69;98.32;546826
20140402;98.09;99;97.73;98.63;729115
20140403;98.63;100.03;98.08;98.69;612283
20140404;100.24;100.8;98.36;98.88;1418158
20140407;98.64;98.87;96.15;96.54;1163497
20140408;96.44;97.07;95.15;96.25;929304
20140409;96.35;97.99;95.86;97.85;716043
20140410;97.99;98.1;94.95;94.98;923470
20140411;94.7;95.39;93.82;93.91;686721
20140414;94.58;94.85;93.57;94.28;652071
20140415;94.32;94.58;92.59;94.27;937693
20140416;95;95.97;94.25;95.82;1017173
20140417;100;100;98.24;99.73;1794054
20140421;99.05;99.71;98.2;98.27;1261495
20140422;98.44;99;98.14;98.18;888952
20140423;98.33;99.06;97.96;98.15;771781
20140424;98.32;98.47;97.14;97.26;768393
20140425;96.94;97.15;95.88;96.49;714529
20140428;96.89;97.29;95.04;95.74;791919
20140429;96.18;96.73;95.59;96.5;493696
20140430;96.15;97;96.13;96.81;560043
20140501;96.58;97.11;96.13;96.32;394537
20140502;96.21;97.79;96.09;97.59;758104
20140505;97.43;98.11;96.79;97.95;444018
20140506;97.37;98.25;96.51;97.74;620270
20140507;98.16;99.45;97.5;99.37;809899
20140508;98.81;99.44;97.49;98.14;600411
20140509;98.13;98.42;97.41;98.31;502493
20140512;98.92;99.83;98.36;99.71;344420
20140513;99.65;99.75;98.78;98.87;475034
20140514;98.8;99.21;98.17;98.28;433089
20140515;98.15;98.23;96.5;97.32;466857
20140516;97.42;97.79;96.48;97.68;735653
20140519;97.97;99.23;97.68;98.02;493165
20140520;98.14;98.62;97.76;97.85;770221
20140521;98.01;98.95;97.86;98.59;593164
20140522;98.51;99.02;98.15;98.18;345677
20140523;98.14;99.52;98.14;99.43;302580
20140527;99.75;99.86;98.92;99.06;678865
20140528;99.25;100.46;98.98;100.13;726505
20140529;100.22;100.5;99.01;100.5;522261
20140530;100.47;101.44;100.07;100.81;539026
20140602;100.91;101.53;100.48;101.17;307727
20140603;100.71;101.15;100.47;100.86;416074
20140604;100.82;102.38;100.04;101.93;786755
20140605;101.79;101.9;100.55;101.58;493108
20140606;102.12;102.9;102.01;102.47;436882
20140609;102.32;102.83;102.18;102.56;420191
20140610;102.2;102.95;101.63;102.9;417241
20140611;102.25;102.96;102.15;102.8;381680
20140612;102.69;102.86;101.68;101.79;642013
20140613;101.92;102.38;101.61;102.14;252054
20140616;101.88;102.13;100.91;101.51;430456
20140617;101.26;102.06;101.02;101.26;362834
20140618;101.13;102;100.64;101.8;561437
20140619;101.71;102.03;101.49;101.61;425065
20140620;101.92;102.73;101.64;102.29;753508
20140623;102.44;102.54;101.85;102.19;299949
20140624;101.8;102.75;101.26;101.52;525415
20140625;101.71;102.92;101.71;102.24;614725
20140626;102.37;102.39;100.96;101.29;477646
20140627;100.81;102.1;100.8;102.03;737023
20140630;105.97;106.51;104.3;105.08;1459513
20140701;105.11;105.5;104.42;104.43;679294
20140702;104.29;104.74;103.97;104.16;462786
20140703;104.35;105.18;104.19;105.08;288598
20140707;104.5;104.53;103.66;104.19;621956
20140708;103.95;104.43;103.35;103.4;480035
20140709;103.9;104.05;103.19;103.91;424670
20140710;102.83;103.91;102.5;103.7;594048
20140711;103.52;104.1;102.9;104.02;350556
20140714;104.25;104.47;103.96;104;315635
20140715;104.36;104.75;102.69;102.78;756212
20140716;103.38;103.6;102.48;102.9;1017931
20140717;102.51;104.88;102.51;103.85;945866
20140718;104.1;105.25;103.98;104.78;698998
20140721;104.3;104.91;104.11;104.38;688815
20140722;104.64;105.55;104.48;105.06;581548
20140723;105.09;105.83;104.87;105.16;742462
20140724;105;105.66;104.71;105.01;457272
20140725;105;105.25;104.27;104.44;314739
20140728;104.64;104.82;103.78;104.34;479996
20140729;104.25;104.29;102.46;102.5;714865
20140730;102.63;103.34;101.8;102.22;635240
20140731;101.91;101.91;99.17;99.18;793617
20140801;98.49;99.62;98.25;99.2;704555
20140804;99.06;100.5;99.06;100.31;495495
20140805;99.63;100.35;98.84;99.11;529694
20140806;98.95;99.91;98.82;99.45;593269
20140807;99.82;100;98.5;98.66;517804
20140808;98.9;100.19;98.51;100.11;381661
20140811;100.33;100.56;99.58;99.59;376882
20140812;99.68;100;99.24;99.77;278910
20140813;100.36;101.06;99.6;101.01;407788
20140814;100.78;101.05;100.46;100.79;433747
20140815;101.03;101.89;100.44;101.14;441170
20140818;101.15;101.97;101.11;101.89;487256
20140819;102.05;102.65;101.91;102.32;407259
20140820;102;102.37;101.6;102.04;469905
20140821;102.35;103;102.04;102.54;464452
20140822;102.55;102.73;102.22;102.28;322439
20140825;102.56;103.18;102.46;103.12;460502
20140826;103.43;103.43;102.78;103.23;435801
20140827;103.06;103.33;102.29;102.62;429510
20140828;102.35;103.06;102.18;102.72;379006
20140829;102.97;103.1;102.61;102.93;388543
20140902;103.2;103.27;102.29;102.6;429018
20140903;102.87;103.06;101.65;101.77;587230
20140904;101.92;102.51;101.61;101.81;399471
20140905;101.88;102.01;101.48;101.98;529634
20140908;101.86;102.69;101.62;101.96;328019
20140909;102.06;102.15;100.55;100.73;418387
20140910;100.59;101.33;100.06;101.23;402138
20140911;100.5;101.07;100.23;100.71;450356
20140912;100.66;100.89;99.48;99.84;474873
20140915;99.88;100.19;99.24;99.86;496301
20140916;99.69;100.94;99.27;100.26;811817
20140917;100.73;101.45;100.42;100.92;679257
20140918;101.11;102.02;100.95;101.58;528792
20140919;101.98;102.58;101.39;101.41;729518
20140922;101.48;101.73;99.76;99.84;678483
20140923;99.62;99.97;99.05;99.14;672100
20140924;99.35;100.42;99.24;100.27;587754
20140925;99.7;99.81;98.71;98.71;501269
20140926;98.56;99.35;98.5;99.23;383420
20140929;98.64;99.95;98.36;99.73;549696
20140930;99.54;99.69;98.19;98.37;799372
20141001;98.25;98.25;94.84;95.59;1514495
20141002;95.44;95.95;93.95;95.59;862423
20141003;96.02;96.83;95.37;95.93;721348
20141006;96.77;96.77;95.28;95.64;469662
20141007;95.2;95.2;93.17;93.21;1174047
20141008;93.23;94.88;92.54;94.77;1425080
20141009;95;95.13;92.81;93.02;1102493
20141010;92.89;93.71;91.73;91.78;1001973
20141013;91.65;92;88.09;88.3;1250532
20141014;88.56;89.98;87.71;88.79;1273028
20141015;87.69;90.57;86.51;90.25;1694421
20141016;86.95;91.75;85.78;90.92;2049254
20141017;92.32;94.19;91.83;93.63;1727386
20141020;93.89;95.64;93.39;95.59;1206719
20141021;95.98;98.14;95.98;98.02;1199405
20141022;98.63;99.25;96.65;96.86;1468715
20141023;97.99;98.29;97.06;97.45;856019
20141024;97.43;98.06;96.31;97.93;807489
20141027;96.58;96.92;95.6;96.3;1050142
20141028;97.39;98.43;96.98;97.7;1122911
20141029;97.51;97.71;95.39;96.03;1873360
20141030;95.67;96.72;95.39;96.18;684052
20141031;97.4;102.25;96.78;101.85;2699086
20141103;102.03;102.39;99.94;100.19;1204585
20141104;100.13;100.4;98.64;99.24;856300
20141105;100.21;102.73;99.83;102.63;1481680
20141106;102.5;103.13;101.58;103.05;995107
20141107;101.53;103.75;101.53;103.45;909694
20141110;103.29;103.67;102.67;103.14;616033
20141111;103.13;103.51;102.36;102.63;704846
20141112;102.62;102.8;101.58;101.95;1038283
20141113;102.12;103.5;101.51;102.62;989989
20141114;102.56;103.18;101.74;101.95;803221
20141117;102;103.19;101.71;102.67;546610
20141118;102.48;104.38;102.18;104.25;901522
20141119;104.35;105.54;104.01;105.33;1359327
20141120;104.92;106.44;104.81;106.33;702885
20141121;107.52;108.87;106.85;107.68;1290386
20141124;107.8;108.27;107.23;107.79;1184001
20141125;107.59;108.72;107.59;107.7;681987
20141126;107.58;108.57;107.28;108.48;454614
20141128;109.15;109.77;108.24;109.41;643176
20141201;108.73;110.39;108.39;109.94;1597910
20141202;110.61;111.12;108.97;109.57;907622
20141203;109.8;111.82;109.57;111.63;795751
20141204;111.56;112.58;111.23;111.86;1026424
20141205;111.95;112.73;111.23;111.43;764040
20141208;111.2;111.98;110.84;111.42;902581
20141209;110.51;112.9;110.51;112.85;890645
20141210;112.81;112.81;110.24;110.43;764908
20141211;110.43;112.16;110.24;111.3;749598
20141212;110.82;111.21;109.88;109.91;1370954
20141215;110.51;111.24;108.12;109.06;1289036
20141216;108.15;110.67;108.02;108.33;973223
20141217;108.55;111.52;108.35;111.13;971533
20141218;112.22;113.55;111.46;113.51;755095
20141219;114.04;114.8;113.51;113.95;1071707
20141222;114.32;115.02;113.67;114.8;823224
20141223;115.09;116.08;115;115.54;509419
20141224;115.75;115.92;115.19;115.56;270832
20141226;115.69;116.4;115.3;115.8;302492
20141229;115.46;116.58;115.31;116.23;434446
20141230;115.77;116.31;115.57;115.83;421647
20141231;116.13;116.84;115.51;115.58;635776
20150102;115.58;116.17;113.8;114.7;444388
20150105;113.53;113.88;111.3;111.74;965878
20150106;112.36;112.65;109.91;111.47;855299
20150107;111.49;112.35;110.69;111.96;1183239
20150108;113.12;115.35;112.47;114.94;1037936
20150109;115.12;115.39;112.88;113.49;800085
20150112;113.5;114.03;112.42;113.13;723417
20150113;113.71;115.12;112.24;113.5;828201
20150114;112.16;113.52;111.27;113.49;1277861
20150115;114.56;116.99;112.39;113.1;1552774
20150116;113.04;115.45;112.53;115.19;943166
20150120;115.55;116;113.08;114.08;1040968
20150121;113.74;114.81;113.11;114.02;734545
20150122;114.36;115.98;113.16;115.68;589810
20150123;115.5;115.5;113.89;113.91;476443
20150126;113.55;114.08;112.61;113.91;501258
20150127;113;114.01;112.13;112.98;623227
20150128;113.07;113.86;110.62;110.87;705557
20150129;111;113.04;110.16;112.86;764441
20150130;111.37;113.03;111.37;111.44;1354186
20150202;110.63;112.12;109.94;111.87;794784
20150203;113.22;113.88;111.92;113.45;664320
20150204;113.3;114.47;112.51;113.73;549950
20150205;114.48;115.62;113.92;115.19;676374
20150206;115.09;116;114.56;115.43;572999
20150209;115.18;115.43;113.09;113.41;870870
20150210;114.59;114.73;112.95;114.12;502524
20150211;113.96;114.6;113.46;114.11;388066
20150212;115.13;116.8;114.56;116.52;813128
20150213;116.85;118.43;116.55;118.39;625595
20150217;117.15;118.49;116.76;117.93;869574
20150218;117.15;118.19;116.62;118.12;572015
20150219;117.24;118.57;117.01;117.75;474781
20150220;117.32;118.6;116.05;118.32;673668
20150223;117.61;118.55;117.41;118.25;673812
20150224;118.43;118.6;117.76;118.39;497360
20150225;118;118.71;117.59;117.84;543067
20150226;117.62;118.41;117.33;117.92;483848
20150227;117.94;118.48;117.05;117.69;697392
20150302;118.44;118.88;117.78;118.85;727369
20150303;118.44;118.49;116.92;117.27;618772
20150304;116.56;118.95;116.11;117.67;843525
20150305;117.92;118.14;117.06;117.73;487151
20150306;116.69;117.39;115.83;115.99;545028
20150309;116.22;116.86;115.76;116.15;709330
20150310;114.97;115.06;113.82;113.84;803393
20150311;113.91;114.08;112.51;112.59;797119
20150312;112.69;114.92;112.56;114.85;493163
20150313;114.36;114.75;113.17;113.96;590778
20150316;114.37;115.13;114.02;115.04;545614
20150317;114.24;114.77;113.07;113.63;558095
20150318;112.96;116.08;111.5;114.82;1055092
20150319;114.09;114.49;112.93;113.09;508816
20150320;113.67;115.13;112.89;114.53;777543
20150323;114.37;114.91;113.21;113.22;645082
20150324;113.19;113.94;112.75;112.75;587398
20150325;112.9;113.52;111.14;111.23;653412
20150326;110.3;111.25;110.03;110.65;562643
20150327;111.01;112;110.47;111.48;611399
20150330;112.15;113.03;111.58;112.25;633250
20150331;111.47;113.2;111.08;112.77;919090
20150401;112.68;112.98;111.18;112.23;811845
20150402;111.71;112.64;111.47;111.79;710527
20150406;111.33;112.49;111;112.11;550264
20150407;112.02;113.17;111.71;112.45;593701
20150408;112.16;113.33;112.16;113.07;810187
20150409;113.19;114.26;112.71;114.17;588704
20150410;114.5;114.95;113.52;114.75;704334
20150413;114.68;115.38;114.21;114.8;672255
20150414;114.71;114.86;113.46;113.98;640625
20150415;114.37;114.55;113.26;113.64;924921
20150416;116.52;116.56;113.28;113.38;1246262
20150417;112.57;114.01;112.18;113.31;1106275
20150420;114.02;114.47;112.74;113.84;955952
20150421;114.11;114.14;112.79;113.53;590669
20150422;113.58;114.2;112.75;113.2;436055
20150423;113.04;113.43;112.69;112.94;427751
20150424;112.94;113.41;111.25;111.66;864799
20150427;111.73;111.98;110.19;110.43;1084867
20150428;110.27;110.67;109.3;110.38;978621
20150429;109.85;111.17;109.57;111.09;876689
20150430;110.24;111.59;110.01;110.78;1108896
20150501;110.87;112.41;110.58;112.28;757789
20150504;112.44;113;112.29;112.52;545514
20150505;113.25;113.49;110.71;110.79;710403
20150506;111.33;111.4;110.33;111.03;706446
20150507;110.75;112.88;110.34;112.46;1082680
20150508;113.89;115.26;113.4;114.53;792808
20150511;114.27;115.09;113.61;113.67;861468
20150512;113.26;113.66;112.21;112.25;623756
20150513;112.26;112.9;111.25;112.7;772337
20150514;113.62;114.5;113;114.4;763679
20150515;114.34;115.89;113.92;115.85;631732
20150518;115.85;115.85;114.75;115.47;921966
20150519;115.44;115.96;114.69;115;740817
20150520;115;115.39;114.12;114.47;642408
20150521;114.16;115.12;114.12;114.62;332205
20150522;114.32;115.16;114.32;114.6;371417
20150526;114.21;114.59;112.88;113.36;735396
20150527;113.76;114.83;113.61;114.57;716921
20150528;114.15;115.07;113.68;114.91;615453
20150529;114.64;115.16;114.02;114.44;600349
20150601;114.09;115.13;113.64;114.52;451674
20150602;114.34;114.96;113.51;114.13;384345
20150603;114.67;115.05;114.01;115;556966
20150604;114.47;115.13;114.12;114.39;703267
20150605;113.96;114.58;113.24;114.32;522894
20150608;114.21;114.28;113.61;114.05;525522
20150609;114.24;115.15;113.8;114.63;535261
20150610;115.22;116.5;115.01;115.94;989705
20150611;116.41;117.48;115.48;117;903094
20150612;116.83;116.97;116.1;116.63;581116
20150615;115.64;116.14;114.95;115.43;990493
20150616;115.22;116.19;115;116;1286916
20150617;116.27;116.83;115.14;116.67;2525445
20150618;117.12;118.24;116.79;117.81;1668934
20150619;117.16;118.02;116.82;117.3;2210023
20150622;118;118.64;117.76;118.17;901041
20150623;118.48;118.69;117.76;118.29;1174896
20150624;118.28;118.49;117.9;117.97;1918339
20150625;118.1;118.56;117.7;117.74;1207833
20150626;118.14;118.23;117.6;118.01;751278
20150629;117.14;117.31;114.88;114.98;996831
20150630;115.69;116;114.4;114.72;1115313
20150701;115.78;116.56;115.23;116.5;1256405
20150702;117.15;117.32;115.24;115.91;943202
20150706;114.81;115.98;114.21;115.1;1425884
20150707;115.33;115.33;113.36;115.06;1641163
20150708;113.91;114.49;113.02;113.1;1537031
20150709;114.66;114.85;112.63;112.64;1718949
20150710;114.12;115.03;113.54;114.9;1364125
20150713;116.19;116.61;115.96;116.53;1474669
20150714;116.5;117.89;116.46;117.61;1185055
20150715;117.32;117.99;116.79;116.98;1510758
20150716;117.09;118.27;111.54;111.82;5356139
20150717;112.46;113.54;111.66;111.8;3351851
20150720;111.95;112;110.62;110.85;2146926
20150721;111.12;111.55;107.86;108.21;3796705
20150722;108.12;108.81;107.29;108.09;2440856
20150723;108.1;108.19;105.1;105.63;3033240
20150724;105.54;105.6;102.19;103.25;3112136
20150727;102.69;103.21;101.61;102.39;2766020
20150728;103.01;107.19;102.64;106.92;3080811
20150729;107.08;108.99;106.84;108.57;2653502
20150730;108.5;108.76;107.57;108.52;1233782
20150731;109;109.37;108.18;108.38;1362379
20150803;107.31;108.71;107.07;107.87;1535424
20150804;108;108.46;106.2;106.54;1599089
20150805;107.69;108.09;106.26;106.59;1207686
20150806;106.24;106.54;104.91;105.21;1507655
20150807;104.86;105.15;103.74;103.92;1589333
20150810;104.72;106.61;104.4;106.61;1196626
20150811;105.36;105.41;103.8;104.41;1477890
20150812;103.64;104.21;102.25;104.03;3566690
20150813;104.26;104.4;103.46;103.52;1230526
20150814;103.64;104.8;103.39;104.7;1344721
20150817;104.21;105.09;103.85;104.26;1578163
20150818;104.42;105.71;104.36;104.57;2426648
20150819;103.78;104.09;102.15;102.5;2175164
20150820;101.91;102.4;99.87;99.87;2302416
20150821;98.56;99.31;97.12;97.21;2542954
20150824;92.03;95.95;91;92.26;3951133
20150825;94.87;94.87;91.02;91.05;2960871
20150826;92.68;93.22;91;93.1;3991735
20150827;94.67;95.85;93.27;95.19;4585858
20150828;94.85;96.38;94.85;96.11;1710015
20150831;95.56;96.66;94.76;95.29;1714133
20150901;93.27;93.63;90.81;91.35;2433813
20150902;92.85;93.53;91.62;93.53;2498278
20150903;94.06;94.89;93.56;93.98;1472064
20150904;92.67;93.84;92.29;93.31;2149396
20150908;94.94;96.41;94.52;96.4;1709644
20150909;97.36;97.88;95.97;96.1;2925368
20150910;96.09;97.39;95.57;96.64;2114865
20150911;96.3;96.78;95.42;96.72;1472635
20150914;96.31;96.77;93.74;94.16;2397318
20150915;94.16;95.33;93.67;94.28;2385582
20150916;94.42;95.36;94.32;95.07;1827604
20150917;95.07;96.04;94.11;94.46;2171415
20150918;93.11;93.99;92.73;93.19;2220822
20150921;93.55;94.33;93.02;93.45;1186599
20150922;92.23;92.57;90.54;91.62;1904974
20150923;91.75;92.17;89.8;89.94;1699186
20150924;89.05;89.46;87.19;88.11;3718159
20150925;88.66;89.23;87.63;88.34;1507090
20150928;87.5;87.83;84.4;84.51;2322877
20150929;84.69;86.32;84.5;85.95;2483655
20150930;87.09;88.22;86.95;87.69;2928363
20151001;82.93;90.18;82.93;90.13;3581533
20151002;89.05;92.72;88.35;92.66;2321962
20151005;93.44;94.85;93.2;94.59;1973817
20151006;94.61;95.2;93.25;93.4;2351686
20151007;92.9;94.34;92.48;94.31;2208796
20151008;94.17;95.99;93.79;95.77;1293623
20151009;95.7;96.46;95.01;95.97;1695281
20151012;96.66;97.71;96.01;97.34;1818662
20151013;96.54;98.05;95.87;97.18;2226693
20151014;96.85;98.23;96.76;97.32;2242369
20151015;97.81;99.38;96.31;99.26;3253581
20151016;100.2;103.26;99.99;100.74;3795596
20151019;100.03;101.28;99.4;101.18;1295898
20151020;101.17;102.4;100.75;101.38;1435715
20151021;101.72;101.85;100;100.64;1978855
20151022;101.6;104;101.34;103.62;2496932
20151023;104.5;104.88;103.73;103.99;1546620
20151026;104.1;104.48;103.42;103.93;1279200
20151027;103.47;104.19;102.63;102.93;1315178
20151028;103.47;104.35;102.71;104.33;1040455
20151029;104.4;104.67;103.58;104.28;1099892
20151030;104.58;104.78;103.68;104.26;1519924
20151102;104.22;104.69;103.36;104;1457191
20151103;104.05;104.79;103.66;104.19;1013389
20151104;104.65;104.72;103.79;103.86;730526
20151105;103.72;104.01;102.44;103.21;910478
20151106;102.49;103.26;101.83;103;1012111
20151109;102.71;102.77;100.75;101.73;893108
20151110;101.39;101.85;100.38;101.12;1316203
20151111;101.51;101.97;100.85;101.61;1011509
20151112;100.61;101.12;99.21;99.21;1903904
20151113;99.34;101.48;98.86;100.83;1938251
20151116;100.91;102.12;100.23;101.95;1766689
20151117;101.9;103.06;101.45;101.71;1381130
20151118;101.81;104.52;101.55;104.23;2128295
20151119;104.23;104.57;102.88;103.37;1252206
20151120;103.5;105.08;103.31;104.62;1761502
20151123;105;106.03;104.29;105.47;1999680
20151124;104.53;106.04;104.53;105.49;1159587
20151125;105.91;106.76;105.38;106.46;1152343
20151127;106.28;106.68;105.54;106.21;491594
20151130;106.36;106.49;105.12;105.74;1560416
20151201;106.39;106.87;105.82;106.76;1008405
20151202;106.2;106.74;105.08;105.34;996033
20151203;105.4;105.99;103.92;104.3;1131973
20151204;104.51;106.37;104.37;105.96;1079812
20151207;105.27;105.86;104.28;104.99;1000702
20151208;103.92;104.53;102.66;102.75;1568163
20151209;102.75;103.58;100.59;101.55;2035920
20151210;101.33;101.74;100.51;100.88;1651976
20151211;99.46;99.96;98.41;98.73;1783093
20151214;98.56;98.96;96.88;97.73;2216286
20151215;98.72;99.42;98.47;98.55;1258076
20151216;99.18;100.33;98.53;100.22;1585775
20151217;100.53;100.66;98.17;98.24;1584000
20151218;97.99;98.2;96.25;96.29;1807988
20151221;96.92;97.37;96.49;97.23;1202643
20151222;97.9;99.16;97.56;98.76;887327
20151223;99.38;100.52;99.24;100.24;827978
20151224;99.94;100.79;99.94;100.39;371784
20151228;100.2;100.33;99.42;99.9;680729
20151229;100.82;100.94;99.95;100.58;676561
20151230;100.33;100.71;99.71;99.77;730411
20151231;99.38;100;98.79;98.82;895356
20160104;97.27;97.99;96.06;97.96;1636433
20160105;98.63;99.32;97.47;98.31;1401524
20160106;96.44;97.2;95.93;96.47;1809335
20160107;95.07;97.14;94.68;95.25;2597603
20160108;95.68;96.64;94.17;94.49;1979363
20160111;94.84;95.72;93.73;94.45;2187220
20160112;95.33;95.56;93.79;95.12;1320681
20160113;95.98;96.24;93.01;93.05;2119863
20160114;93.29;94.12;91.6;93.57;2300175
20160115;91.64;92.35;90.34;91.9;2052762
20160119;92.8;93.25;89.9;91.6;3317956
20160120;90.45;94.69;90.02;93.52;4935210
20160121;93;94.67;90.61;91.92;4310680
20160122;92.79;94.81;92.33;93.16;1860686
20160125;92.81;93.32;90.93;91.11;1623206
20160126;91.48;93.29;91.11;92.58;1236814
20160127;92.43;94.24;91.9;92.8;1887428
20160128;93.29;94.04;91.98;92.09;2347271
20160129;92.72;95.14;92.28;95.12;2365396
20160201;93.71;95.9;93.25;95.59;1748378
20160202;94.97;94.97;92.66;93.04;1635958
20160203;94.29;95.15;91.87;95.11;1831786
20160204;95.33;96.32;94.6;95.7;1457465
20160205;95.31;95.83;92.71;92.87;1544365
20160208;92.21;92.28;88.86;89.65;1926814
20160209;88.62;91.68;88.37;90.99;1567212
20160210;91.67;93.21;91.04;91.34;1240182
20160211;89.35;90.73;88.47;89.27;1796456
20160212;90.06;92.14;89.62;91.78;1438716
20160216;93.06;93.77;91.78;93.62;1198946
20160217;94.31;95.45;93.01;95;1850168
20160218;95.2;95.58;94.14;94.69;1506434
20160219;94.66;95.74;93.68;95.63;1592329
20160222;96.87;98;95.86;96.72;1291571
20160223;96.54;96.66;94.7;94.87;1260295
20160224;93.61;95.81;92.95;95.68;815227
20160225;96.11;97.06;94.56;97.01;1036816
20160226;97.73;98.45;97.36;98.16;1078999
20160229;97.97;98.84;96.49;96.53;1430920
20160301;97.55;100.49;96.92;99.58;1503966
20160302;99.22;99.74;98.43;99.33;945054
20160303;98.96;100.75;98.23;100.3;1921725
20160304;100.67;102.93;100.32;102.49;2073315
20160307;101.84;103.45;101.64;103.37;1649018
20160308;102.38;102.65;101.35;101.51;1280035
20160309;102.2;102.71;101.38;102.28;1147527
20160310;102.6;104.22;101.84;102.91;902020
20160311;104.15;105.23;103.78;105.01;1479582
20160314;104.34;105.1;104;104.74;878714
20160315;103.95;104.95;103.62;104.76;819325
20160316;104.22;106.67;104.13;106.61;1122636
20160317;106.9;109.71;106.9;109.4;1789771
20160318;109.62;110.58;108.05;108.9;2628422
20160321;109.62;110.53;108.28;108.89;2170274
20160322;108.8;110.2;108.56;109.84;1663271
20160323;108.91;109.68;108.13;109.14;1222284
20160324;108.2;109.06;107.38;108.95;1386202
20160328;109.39;109.61;108.74;109.4;1043780
20160329;108.8;110.59;108.61;110.57;1026264
20160330;111;112.1;110.73;111.9;1636866
20160331;111.9;112.08;111.13;111.49;1438901
20160401;110.44;113.29;110.22;113.11;1453334
20160404;113.15;113.23;111.63;112.19;1390534
20160405;111.49;112.04;110.91;111.43;1319226
20160406;111.37;112.2;110.64;112.08;812145
20160407;111.35;111.83;110.08;110.61;921245
20160408;111.03;112.14;111.03;111.83;712045
20160411;112.07;112.84;111.59;111.68;887120
20160412;112.09;113.17;111.36;112.94;871345
20160413;113.42;114.29;112.74;114.23;1062905
20160414;113.74;114.59;113.74;114.51;1070934
20160415;114.69;115.4;114.39;115.35;1284875
20160418;115;115.93;114.64;115.75;1543522
20160419;116.24;116.8;115.77;116.55;1466605
20160420;116.85;117;115.55;116.07;1593694
20160421;111.7;113;110.1;110.26;3641264
20160422;111.35;113.39;110.78;113.19;2145526
20160425;113;113.3;111.97;112.6;951003
20160426;113.37;113.91;113.01;113.55;1525897
20160427;113.89;114.65;112.59;112.99;1246896
20160428;111.89;113.4;111.53;112.77;1617399
20160429;112.4;112.73;109.75;110.39;2308459
20160502;110.18;111.25;109.04;111.24;1390051
20160503;110.09;110.22;109.02;109.5;1303293
20160504;108.51;109.36;108;108.59;1062095
20160505;109.04;109.53;108.23;108.58;810173
20160506;107.7;108.31;107.18;108.31;1172291
20160509;108.14;108.23;107.29;107.44;1046643
20160510;107.8;108.83;107.26;108.73;817535
20160511;108.74;109.2;107.38;107.42;1623257
20160512;108.23;108.55;106.36;107.49;1130257
20160513;107.57;108.07;106.47;106.7;1547593
20160516;107.19;108.64;107.09;108.16;1488643
20160517;107.82;108.27;106.69;107.01;1226987
20160518;106.93;107.79;106.07;106.39;1996244
20160519;106;106.65;104.96;105.64;1153855
20160520;106.38;107.03;105.93;106.21;906316
20160523;106.19;106.83;105.8;106.43;1485412
20160524;106.57;108.15;106.46;107.76;1084848
20160525;108.26;108.73;107.7;108.32;800585
20160526;108.35;109;107.59;107.7;685735
20160527;107.96;108.71;107.3;108.6;732422
20160531;108.65;108.87;107.2;107.68;1807466
20160601;107.31;108.21;106.49;107.98;998448
20160602;107.36;108.2;106.89;108.2;759921
20160603;108.07;108.17;106.86;107.67;1338729
20160606;108.1;108.87;107.68;108.12;935929
20160607;108.15;108.36;107.37;107.77;1238473
20160608;108.06;111.26;107.51;110.95;1908107
20160609;110.21;110.49;109.52;110.43;2689507
20160610;109.77;109.86;108.77;109.24;1255754
20160613;108.94;109.25;107.61;107.69;1343900
20160614;107.31;107.85;106.43;107.08;1221823
20160615;107.3;107.64;106.5;106.62;1056485
20160616;105.62;107.01;105.06;106.96;843422
20160617;107;108.26;106.63;108.18;1807062
20160620;109.28;109.73;108.32;108.42;1227922
20160621;108.65;108.65;107.83;108.06;1346303
20160622;108.4;108.4;107.66;107.81;1219510
20160623;109.7;111.26;109.44;111.22;2078270
20160624;108.09;108.09;102.21;102.73;3821510
20160627;101.41;101.47;98.08;98.69;3449547
20160628;99.95;100.56;98.42;100.56;1941333
20160629;101.94;102.72;101.57;102.49;1582807
20160630;102.57;104.15;101.99;104.15;2192977
20160701;104.32;105.49;104.07;104.52;1334274
20160705;103.92;103.93;101.8;102.65;1898755
20160706;102.2;103.02;101.72;102.97;1451539
20160707;103.28;103.78;102.53;103.03;1547875
20160708;104.18;106.61;103.98;106.32;1649140
20160711;106.63;107.04;106.42;106.61;892797
20160712;107.55;109.5;107.31;108.7;1404235
20160713;109.1;109.55;107.96;109.47;1238503
20160714;109.81;109.99;108.35;108.63;1359368
20160715;109.02;109.48;108.14;109.27;1341275
20160718;109;109.5;108.61;109.3;870149
20160719;108.64;108.98;107.77;108.38;1424222
20160720;108.79;110.14;108.48;110.03;2361134
20160721;109;110.13;107.56;108.59;2139928
20160722;108.59;108.59;107.31;107.65;1708845
20160725;107.23;107.35;106.4;106.59;1670791
20160726;107.07;107.07;106.18;106.76;2285250
20160727;106.87;106.87;105.76;106.09;1627366
20160728;105.72;106.32;104.82;105.48;2163041
20160729;104.99;105.23;103.74;104.71;2107674
20160801;104.1;105.06;103.74;104.67;1641907
20160802;104.88;104.88;103.35;103.69;1473514
20160803;104.13;104.38;102.87;104.33;2415786
20160804;104.3;104.82;103.85;104.1;1282197
20160805;104.61;104.99;104.35;104.43;1063659
20160808;104.45;104.7;104.05;104.48;1211361
20160809;104.35;105.2;104.19;104.37;1044980
20160810;104.69;105.07;104.09;104.69;1102365
20160811;104.82;105.38;104.43;104.74;1096106
20160812;104.61;104.87;103.71;103.99;977582
20160815;104.13;104.75;104.02;104.46;1037262
20160816;104.51;105.36;103.65;103.65;1287115
20160817;103.66;104.03;102.9;103.59;1243021
20160818;103.59;103.96;103.36;103.77;1036944
20160819;103.22;104.86;103.22;104.73;1090001
20160822;104.43;105.28;104;105.21;1148549
20160823;105.87;106.77;105.6;106.44;1341749
20160824;106.28;107.12;106;106.39;1808389
20160825;106.1;107.19;106.05;106.75;914054
20160826;106.97;107.65;105.41;105.75;929702
20160829;105.91;107.89;105.91;107.6;1301714
20160830;107.35;107.7;106.67;107.28;1036536
20160831;107.08;107.08;105.43;105.88;1392251
20160901;106.02;106.3;105.09;105.98;929606
20160902;106.74;107.07;106.32;107.04;662667
20160906;107.37;107.97;107.01;107.62;1321192
20160907;107.24;107.79;106.42;106.73;1337902
20160908;106.54;106.88;105.28;105.3;1042443
20160909;104.58;104.58;100.76;100.86;2339450
20160912;100.48;102.98;100.42;102.76;1597182
20160913;101.71;101.95;100.58;101.16;1425355
20160914;101.07;101.38;99.96;100.68;1098659
20160915;100.69;101.6;100.38;101.24;1199563
20160916;100.63;100.82;99.78;100.21;1986709
20160919;100.93;101.55;100.53;101.08;1266116
20160920;100.41;101.95;100.41;101.26;1317944
20160921;101.8;102.54;101.26;102.46;1143979
20160922;103.51;104.22;102.92;103.14;1149767
20160923;103.11;103.76;102.78;103.27;1648992
20160926;103.07;103.29;102.01;102.14;928392
20160927;102;102.63;101.55;102.45;1290438
20160928;102.92;103.95;102.37;103.57;1300810
20160929;103.65;103.96;101.98;102.06;1162960
20160930;102.65;103.85;102.65;103.36;1716461
20161003;103.27;104.04;103.27;103.44;1348278
20161004;103.8;104.08;101.8;102.05;1560626
20161005;102.3;102.73;101.55;101.58;912363
20161006;101.4;102.36;101.22;102.19;1078775
20161007;97.19;97.5;92.51;93.73;7136802
20161010;94.31;94.99;93.22;93.85;3251573
20161011;93.25;93.25;91.51;92.3;4157688
20161012;92.39;92.56;91.43;91.94;2171212
20161013;91.01;92.36;90.31;92.12;2603365
20161014;92.75;93.11;92.55;92.6;2453246
20161017;92.6;92.88;92.24;92.66;1918790
20161018;93.75;93.83;92.79;92.81;1317470
20161019;92.82;93.18;92.16;92.56;2166432
20161020;92.69;94.47;92.51;92.66;2411418
20161021;91.42;92.59;90.48;92.38;2366992
20161024;92.75;93.51;92.7;93.24;2011073
20161025;90.55;92.06;89.64;91.22;4338508
20161026;91.01;92.62;91.01;92.52;2515849
20161027;93.03;93.63;92.74;93.35;2291233
20161028;93.44;94.53;92.27;92.87;2062332
20161031;93.35;93.44;92.81;93.13;2172977
20161101;93.25;93.59;91.75;92.74;2224383
20161102;92.85;93.99;92.37;92.38;2227472
20161103;92.76;93.14;91.66;91.75;1647574
20161104;92.02;93.66;91.54;92.81;1528583
20161107;94.16;94.42;93.57;94.35;2066789
20161108;93.83;95.19;93.5;94.74;1692133
20161109;92.36;95.97;90.88;95.29;3225509
20161110;95.91;98.21;95.78;96.87;2826797
20161111;96.32;97.27;95.49;95.77;2013836
20161114;96.4;96.85;95.13;96.05;2002259
20161115;96.1;96.54;95.51;96.23;1778804
20161116;95.96;96.57;95.86;96.36;1636390
20161117;96.77;96.83;96.1;96.61;1118735
20161118;96.23;96.23;95.12;95.19;1276934
20161121;95.56;96.33;95.31;96.19;1807111
20161122;96.45;96.71;96.03;96.62;1513562
20161123;96.59;97.69;96.36;97.59;1286678
20161125;97.63;98.13;97.35;98.13;482559
20161128;97.92;97.95;96.77;97.35;1251211
20161129;97.35;98.45;96.92;98;1467938
20161130;98.46;98.69;95.83;95.93;2704322
20161201;96.42;96.8;94.85;95.24;2444082
20161202;95.29;95.5;94.15;94.58;2085220
20161205;95.36;96.99;95.23;95.99;1634607
20161206;95.98;96.36;95.52;96.22;1358018
20161207;96.31;98.21;96.21;98.18;1581683
20161208;98.18;99.67;97.88;99.41;1494158
20161209;99.48;100.17;98.92;99.3;1355202
20161212;99.07;99.85;97.76;98.65;1528911
20161213;98.13;98.39;96.65;97.05;2145238
20161214;97.07;97.88;95.91;96.17;1576813
20161215;96.2;97.12;95.63;96.1;1684597
20161216;96.07;96.7;95.78;95.92;2050117
20161219;96.06;96.87;95.97;96.22;1473441
20161220;96.26;96.4;95.56;95.64;1418568
20161221;95.39;96.2;95.05;95.87;1189982
20161222;95.94;95.99;94.93;95;1177536
20161223;95.04;95.04;93.8;94.69;1816187
20161227;95.05;95.93;94.88;95.85;1200265
20161228;96.34;96.47;94.59;94.67;1155146
20161229;94.7;95.32;94.67;95.31;1150148
20161230;95.43;95.5;94.46;94.76;1248654
20170103;95.43;95.97;94.57;95.25;1358064
20170104;95.71;97.52;95.63;97.27;1334473
20170105;96.46;96.62;95.4;95.62;1661879
20170106;95.77;96.14;95.29;95.59;1379830
20170109;95.05;96.46;94.77;96.35;1454135
20170110;96.07;96.65;95.67;96.39;1418749
20170111;96.25;96.67;95.58;96.63;1169855
20170112;96.45;96.98;95.8;96.87;1027233
20170113;96.83;97.1;96.17;96.32;1237908
20170117;95.79;96.08;94.62;95.97;2251585
20170118;95.97;96.85;95.66;96.69;2144600
20170119;97.84;98.98;96;97.5;3378025
20170120;98.03;99.82;97.87;99;2805545
20170123;98.74;100.31;98.7;100.24;2340664
20170124;100.74;102.55;100.44;101.8;2264397
20170125;102.2;102.28;100.88;101.08;2107450
20170126;101.64;102;100.76;101.85;1591702
20170127;101.69;102.12;101.22;102.02;1333600
20170130;102.15;102.15;100.44;102.03;1996094
20170131;101.72;101.86;99.29;100.01;2571536
20170201;99.65;100.76;99;100.56;1643610
20170202;100.51;101.08;100.04;100.58;1971552
20170203;101.11;101.15;100.42;100.94;921564
20170206;100.32;100.99;99.55;99.92;1605982
20170207;100.04;100.82;99.77;100.01;1084109
20170208;100.08;100.27;99.57;100.1;1029155
20170209;100.19;100.48;99.79;100.13;726365
20170210;100.2;100.95;100.02;100.54;1304232
20170213;100.94;101.25;100.64;100.81;981485
20170214;100.91;101.75;100.47;101.57;1530961
20170215;101;101.67;100.91;101.5;877537
20170216;101.8;101.99;100.99;101.77;878930
20170217;101.71;102.37;100.74;102.37;1305967
20170221;102.5;103.13;102.35;103;2263346
20170222;102.4;103.34;102.32;102.81;1951353
20170223;103.23;103.23;102.19;102.6;1521216
20170224;102.13;103.37;101.93;103.31;1348643
20170227;103.08;103.4;102.26;102.45;1149052
20170228;102.32;102.76;101.96;102.43;1277456
20170301;103.45;103.82;103.05;103.29;1680749
20170302;103.3;103.3;102.3;102.38;1398884
20170303;102.43;103.17;101.68;102.06;1077308
20170306;101.95;101.96;100.96;101.2;928048
20170307;101.14;101.25;100.67;100.78;1211903
20170308;100.64;113.49;100.34;106.83;12605302
20170309;106;106;101.42;102.93;5750030
20170310;103.94;104.52;101.94;102.09;3039008
20170313;102.26;102.73;101.59;102.68;1442701
20170314;102.47;102.47;101.45;101.73;1208642
20170315;102.89;104.41;102.19;104.04;1789376
20170316;104.65;104.65;103.02;103.62;1194650
20170317;104.39;105;103.38;104.49;2972931
20170320;104.23;105.72;102.36;105.57;2573623
20170321;105.39;106.24;104.43;104.48;2055712
20170322;104.4;104.4;102.64;104.25;2044220
20170323;103.93;105.46;103.5;104.62;1838753
20170324;104.5;104.87;103.56;103.79;1284338
20170327;102.76;104.01;102.2;103.82;1588198
20170328;103.85;105.3;103.57;104.97;1084869
20170329;104.89;105.95;104.55;105.77;1144139
20170330;105.45;105.96;105.16;105.23;1413466
20170331;104.94;105.52;103.94;105.08;1236529
20170403;105.5;105.62;104.18;105.08;1317949
20170404;105.08;105.29;104.53;104.77;1214226
20170405;105;106.67;104.55;105;1664047
20170406;105.18;105.86;104.99;105.27;1247102
20170407;105.15;106.2;105.15;106.05;1116689
20170410;105.89;106.41;105.26;105.79;1029701
20170411;105.49;106.11;104.87;106.06;1154365
20170412;105.5;105.5;104.52;105.06;1174533
20170413;105;105.31;104.27;104.42;857460
20170417;104.82;105.46;104.32;105.39;859765
20170418;104.87;105.38;104.32;104.74;1148585
20170419;104.97;105.8;104.67;105;1176519
20170420;105.63;106.61;104.36;106.37;2230520
20170421;106.66;107.16;105.94;105.94;2044941
20170424;108.03;108.22;106.9;108.01;2096751
20170425;108.18;111.06;108.18;110.82;2342580
20170426;110.89;110.89;109.61;110.48;1332553
20170427;110.58;111.99;110.3;111.29;1715933
20170428;111.05;111.05;109.81;109.84;1046842
20170501;109.67;109.95;109.11;109.46;706473
20170502;109.69;113;109.09;109.47;1109178
20170503;109.32;109.67;109.04;109.2;927419
20170504;109.33;110.29;109.22;109.89;1102093
20170505;110;111.34;109.83;110.56;1214005
20170508;109.75;109.95;108.16;108.43;1310048
20170509;108.47;108.72;107.53;107.85;1258564
20170510;107.94;108.54;107.6;107.85;1044008
20170511;107.31;107.76;106.27;107.46;1128566
20170512;107.29;107.47;106.82;107.12;500457
20170515;107.16;108.42;107.16;107.98;730610
20170516;107.92;108.07;107.25;107.41;600377
20170517;106.71;107.08;105.4;105.48;1294021
20170518;105.62;106.11;104.9;105.39;1326940
20170519;105.11;107.13;105.11;106.73;1081226
20170522;106.95;107.18;106.15;106.42;959387
20170523;106.48;107.07;106.09;106.7;794345
20170524;106.8;107.44;106.18;106.94;524768
20170525;107.17;107.51;106.57;106.91;1340484
20170526;106.72;107.67;106.48;107.24;664697
20170530;107;107;105.88;106.48;975121
20170531;106.67;106.67;105.69;106.36;1696141
20170601;106.49;110.47;106.39;109.16;2198866
20170602;109.14;110.65;108.69;110.42;1314459
20170605;110;110.38;108.31;108.36;1066172
20170606;107.86;108.56;107.65;108.38;1258087
20170607;108.57;108.75;107.53;107.85;1915135
20170608;107.35;108;106.64;107.92;1293641
20170609;108.07;109.93;108.07;109.93;1617344
20170612;110;110.84;109.69;110.14;2196587
20170613;110.06;111.58;109.85;111.57;1357642
20170614;111.68;111.71;111.03;111.5;892790
20170615;110.47;111.62;110.47;111.32;978970
20170616;111.2;111.74;110.84;111.16;2188212
20170619;111.51;111.57;110.97;111.11;1242209
20170620;110.88;111.24;110.61;110.78;884301
20170621;111;111.21;110.47;110.68;1372519
20170622;110.77;110.93;110.4;110.57;1184714
20170623;110.5;111.03;110.33;110.68;1442728
20170626;110.55;111.06;110.32;110.82;734646
20170627;110.49;111.22;110.49;110.49;956538
20170628;111;111.3;110.89;111.07;1967432
20170629;111.06;111.3;109.27;109.65;835940
20170630;110.18;110.53;109.66;109.96;786673
20170703;110.61;111.1;110.21;110.61;381538
20170705;111.22;111.6;110.22;110.68;630808
20170706;110.44;110.62;109.82;110.05;864919
20170707;110.35;111.13;109.94;111;721029
20170710;110.73;111.4;110.73;110.98;1069946
20170711;111.1;111.28;110.55;110.97;750285
20170712;111.67;112.18;111.26;111.84;1418865
20170713;111.79;112.63;111.73;112.4;906435
20170714;112.64;113.14;112.32;112.8;658121
20170717;112.8;113.46;112.52;112.96;466433
20170718;112.84;112.99;112.12;112.95;826464
20170719;113.13;113.67;112.69;113.6;1102170
20170720;109.59;109.59;105.83;106.72;4708055
20170721;106.25;107.4;106.25;106.37;2676696
20170724;105.19;105.84;104.69;105.39;2566988
20170725;106.2;107.52;105.87;107.11;1822849
20170726;107.13;107.22;106.61;106.75;1049849
20170727;106.83;107.19;105.49;106.15;1896447
20170728;106.15;106.54;105.45;106.03;1724437
20170731;106.32;106.45;104.99;105.25;1570646
20170801;105.28;105.62;104.63;105.11;2103503
20170802;104.92;106.85;104.77;106.21;1974590
20170803;106.46;106.46;103.86;104.67;2121560
20170804;104.94;105.29;104.31;105.01;846636
20170807;105.2;105.91;104.95;105.14;1143214
20170808;104.26;104.43;103.19;103.4;1398246
20170809;103.04;103.82;102.8;103.37;1910133
20170810;102.8;103.12;101.22;101.33;2084251
20170811;101.56;101.56;100.45;100.73;1536922
20170814;101.71;102.8;101.2;102.56;1304048
20170815;102.6;103.21;102.25;102.94;1332556
20170816;103.17;103.88;102.74;103.74;1319742
20170817;103.56;103.98;102.68;102.68;1009604
20170818;102.43;102.85;101.95;102.08;1778770
20170821;102.1;102.53;101.72;102.39;1351627
20170822;102.66;104.75;102.37;104.54;995787
20170823;104.02;104.42;103.59;103.63;891459
20170824;103.91;104.57;103.6;103.71;685316
20170825;103.98;104.09;103.23;103.72;863929
20170828;103.88;104.36;103.57;104.15;809406
20170829;103.45;104.04;103.03;103.86;866886
20170830;103.62;104.3;103.46;103.81;1301360
20170831;104.22;104.47;103.82;104.32;1714443
20170901;104.8;104.92;104.1;104.59;997596
20170905;104.46;104.7;103.32;103.44;1009308
20170906;103.92;104.64;103.1;104.2;1589333
20170907;104.37;104.37;103.1;104.01;938689
20170908;103.63;103.94;101.61;103.59;1210286
20170911;104.48;106.11;103.94;105.9;1038935
20170912;106.08;106.75;105.55;106.69;797466
20170913;106.42;106.54;104.75;105.06;1370412
20170914;105.25;106.62;104.6;106.48;1353068
20170915;106.25;106.58;105.96;106.3;1856416
20170918;106.2;106.93;105.97;106.8;1278714
20170919;107;108.38;106.77;108.34;1034237
20170920;108.52;109.27;108.18;108.81;1442149
20170921;108.66;109.9;108.66;108.99;1018923
20170922;108.96;109.18;108.47;108.76;1123327
20170925;108.23;110.16;108;109.16;1914062
20170926;109.39;109.74;108.13;108.51;2132748
20170927;108.64;108.93;107.81;107.99;1509115
20170928;107.92;108.93;107.7;108.85;1592573
20170929;108.74;109.56;108.42;108.66;1749282
20171002;108.66;111.16;108.43;111;1329388
20171003;111.6;112.42;110.95;111.99;1299914
20171004;112.09;112.89;111.98;112.26;1449924
20171005;112.47;113.17;112.17;113.03;1102927
20171006;112.88;114.15;112.67;113.28;1197958
20171009;113.07;113.07;111.75;112.64;1525050
20171010;112.64;112.74;111.91;112.38;1190333
20171011;112.38;112.59;111.69;112.41;801757
20171012;112.25;113.82;112.17;113.4;1368838
20171013;113.88;113.9;113.2;113.5;1004254
20171016;113.77;113.99;112.7;113.17;1321317
20171017;113.12;113.55;112.76;112.96;1581554
20171018;113.15;113.32;112.1;112.88;1797676
20171019;111;115.36;110.1;114.31;2019485
20171020;114.95;117.8;114.79;117.76;2265914
20171023;117.68;117.91;116.73;116.89;1977380
20171024;117.65;118.72;117.28;117.44;1415846
20171025;117.26;117.92;116.72;117.72;1457802
20171026;118.59;119.07;118.07;118.67;1021385
20171027;118.5;119.85;117.26;117.93;2031351
20171030;117.55;117.83;115.91;116.16;1238720
20171031;116.57;117.09;116.03;116.24;1156574
20171101;116.34;116.72;115.49;115.92;1140013
20171102;116.1;116.21;115.52;116.16;984577
20171103;116.18;116.86;115.89;116.53;781619
20171106;116.56;116.78;116.31;116.34;639602
20171107;116.55;116.96;116.05;116.34;639074
20171108;116.22;116.45;115.54;116.12;877080
20171109;115.05;115.73;114.56;115.13;926982
20171110;114.68;115.04;114.38;114.67;908556
20171113;114.26;114.88;114.15;114.55;1247762
20171114;113.49;114.57;113.42;114.35;974877
20171115;114.09;114.09;113.25;113.39;951966
20171116;113.79;114.19;113.38;114.01;1396206
20171117;114;114.46;113.57;113.83;1809722
20171120;114.08;115.91;113.88;114.88;1058455
20171121;115.61;115.85;115.15;115.34;794221
20171122;115.63;116.54;115.25;115.27;1502437
20171124;115.81;116.53;115.66;116.1;438775
20171127;115.95;116.38;115.71;115.85;1196328
20171128;116.26;117.42;116.26;117.34;1832379
20171129;117.48;117.74;116.54;117.01;1157004
20171130;117.1;118.5;116.6;116.85;2045070
20171201;117.31;117.59;114.9;115.93;1540781
20171204;117.9;118.92;116.83;117.56;1337199
20171205;117.37;117.64;116.65;116.75;1004510
20171206;116.6;117.18;116.03;116.19;893462
20171207;116.03;116.69;115.89;116.11;1128638
20171208;116.24;116.43;115.72;115.92;786147
20171211;116.06;116.46;114.73;115.68;948848
20171212;115.74;116.25;115.34;115.89;2037387
20171213;116.08;116.96;116.02;116.25;1292135
20171214;116.31;116.62;113.26;113.82;1834927
20171215;114.7;115.49;114.31;115.09;2537296
20171218;115.62;116.53;115.36;116.13;1205097
20171219;116.68;116.93;116;116.31;1182687
20171220;116.38;117.19;116.11;116.16;1030407
20171221;116.33;116.89;116.04;116.18;645172
20171222;116.42;116.53;115.9;116.19;574938
20171226;116.4;116.46;116.08;116.28;491308
20171227;116.46;116.63;116.02;116.49;548021
20171228;116.69;117.17;116.23;117.17;533215
20171229;117.34;117.68;116.82;116.82;867713
20180102;116.98;118;116.81;118;935225
20180103;118;118.81;117.14;118.19;929811
20180104;118.66;119.76;117.32;117.47;1226061
20180105;117.74;119.05;117.49;118.92;959574
20180108;119;119.19;118.49;118.72;1260148
20180109;119.05;119.18;118.15;118.22;1012770
20180110;117.97;118.33;116.31;116.61;1382306
20180111;116.69;117.86;116.12;117.57;1290302
20180112;118.01;118.6;117.67;118.17;1466325
20180116;118.56;118.99;116.17;116.64;2373757
20180117;116.6;117.04;114.28;114.5;3855085
20180118;115.75;122.07;115.16;118.41;3736596
20180119;118.05;119.13;116.53;118.44;2953303
20180122;118.26;118.66;116.36;116.78;1672586
20180123;116.51;118.11;116.51;117.25;1731728
20180124;117.54;119.12;117.35;118.94;1985506
20180125;119.76;120.78;118.97;120.21;2489366
20180126;120.5;121.5;119.62;121.47;1686798
20180129;120.91;121.65;119.38;119.57;1332232
20180130;119.2;119.66;117.78;118.35;1172346
20180131;118.87;119.07;118.2;118.73;1400063
20180201;118.16;118.77;115.57;117.62;1393930
20180202;117.28;117.46;115.51;115.61;1659166
20180205;115.29;117.12;111.62;111.98;2484634
20180206;110.33;114.2;109.6;113.96;2391951
20180207;113.86;116.74;113.48;114.13;2223283
20180208;113.89;114.2;110.27;110.3;2099480
20180209;111.76;113.2;108.74;112.37;1739285
20180212;113;114.73;112.86;113.98;1242926
20180213;113.44;114.82;112.6;114.56;1423776
20180214;113.85;116.82;113.47;116.32;1283813
20180215;116.24;116.55;114.81;116.19;1276858
20180216;115.86;117.23;115.37;116.16;995928
20180220;115.35;116.12;114.75;115.4;1038435
20180221;115.48;117.73;115.32;115.62;1017403
20180222;116.27;117.1;115.59;115.86;919713
20180223;116.68;117.6;115.88;117.46;738536
20180226;117.55;117.75;116.24;117.53;964881
20180227;117.75;117.88;115.27;115.31;1090834
20180228;113.7;114.72;112.29;112.44;2725331
20180301;111.95;113.13;110.3;111.11;1603734
20180302;110.23;110.89;109.59;110.25;1360195
20180305;109.5;113.09;109.5;112.76;1997128
20180306;113.09;116.14;112.7;115.07;1531033
20180307;113.78;115.32;113.7;115.02;1311632
20180308;115.41;115.64;114.84;115.4;1059801
20180309;116.21;117.74;115.95;117.65;1412282
20180312;117.65;118.62;115.6;116.46;1293029
20180313;117.2;117.83;115.48;116.07;1338366
20180314;116.48;116.75;114.68;115.04;1000481
20180315;115.21;115.84;113.97;114.28;1127032
20180316;114.29;115.21;113.85;114.93;2409716
20180319;114.42;114.86;112.62;113.22;1109254
20180320;115;115.58;113.7;113.85;1446925
20180321;114;115.45;113.72;113.95;1233808
20180322;113.12;113.76;111.12;111.31;1251029
20180323;111.44;112.49;109.39;109.48;1371649
20180326;110.62;112.1;110.01;111.93;1187439
20180327;112.59;113.92;111.47;111.91;1530528
20180328;112.18;112.84;109.94;109.97;2016709
20180329;110.36;112.53;110.04;111.6;1276966
20180402;111.55;111.58;107.04;108.26;1504673
20180403;108.5;110.43;107.79;110.18;2202951
20180404;108.39;110.89;107.95;110.79;1259378
20180405;111.7;112.3;111.09;111.67;1472489
20180406;110.6;111.86;108.4;109.39;1677839
20180409;110.3;111.37;109.37;109.61;1270109
20180410;110.62;111.25;109.9;110.36;1526241
20180411;109.38;109.85;108.57;109.28;1298793
20180412;109.75;110.43;108.63;110.04;1901928
20180413;110.65;110.93;109.56;110;1185925
20180416;110.88;112;110.46;111.77;1739282
20180417;112.2;113.49;111.67;113.08;1604179
20180418;113.31;113.83;112.78;113.19;2156821
20180419;113.75;113.9;108.38;109.64;2373977
20180420;109.46;110.17;108.24;108.87;1971154
20180423;108.8;109.8;108.7;108.88;1431060
20180424;108.97;109.45;104.39;105.77;2372240
20180425;107.46;109.47;105.92;107.88;2649100
20180426;107.97;108.09;106.44;107.7;1173732
20180427;107.31;108.34;107.2;107.97;1022701
20180430;108.51;108.9;105.75;105.88;1413093
20180501;105.1;106.94;104.02;106.92;1316596
20180502;107.05;107.27;105.4;105.71;1889887
20180503;105.55;106.2;104.28;104.96;1281255
20180504;104.48;107.04;104.14;106.4;1193942
20180507;106.48;106.98;105.64;106.21;997701
20180508;106.07;107.16;105.95;106.68;900605
20180509;106.71;107.41;106.11;107.05;1153285
20180510;107.26;107.7;105.94;106.11;1951494
20180511;105.85;106.29;100.36;100.43;7284993
20180514;101.04;102.97;100.97;102.97;3719794
20180515;102.78;103.24;101.79;103.03;1787840
20180516;101.89;103.98;101.21;103.5;2090344
20180517;103.26;104.72;103.25;104.41;1292872
20180518;104.16;105.3;104.03;104.95;2829956
20180521;105.5;105.86;104.84;105.03;1229718
20180522;105.03;105.23;102.72;102.84;1549365
20180523;102.24;102.98;101.7;102.71;1312466
20180524;102.36;102.93;101.5;102.5;1087487
20180525;102.04;103.51;101.67;103.4;1121484
